9.612984061241152123e-01,8.714107275009155273e-01,3.920099735260009766e-01,0.000000000000000000e+00,1.835206001996994019e-01,1.785268485546112061e-01,1.173533052206039290e-01,1.235955059528350691e-01,1.285892575979233066e-01,1.335830241441726685e-01,1.298377066850661954e-01,1.335830241441726685e-01,1.423220932483673096e-01,1.498127281665802002e-01,1.460674107074737549e-01,1.498127281665802002e-01,1.647940129041671753e-01,1.697877645492553433e-01,1.735330820083617887e-01,1.935081183910369595e-01,2.072409540414809903e-01,2.184769064188003540e-01,2.359550595283508023e-01,2.621722817420959473e-01,2.846441864967346191e-01,2.921348214149475098e-01,2.933832705020904541e-01,2.983770370483398438e-01,2.971285879611968439e-01,2.821473181247711737e-01,2.521847784519195557e-01,2.234706580638884943e-01,2.122347056865692139e-01,1.897628009319305142e-01,1.685393303632736206e-01,1.485642939805984220e-01,1.535580456256866455e-01,1.473158597946166715e-01,1.423220932483673096e-01,1.435705423355102539e-01,1.485642939805984220e-01,1.523096114397048950e-01,1.498127281665802002e-01,1.560549288988113126e-01,1.610486954450607300e-01,1.585518121719360352e-01,1.560549288988113126e-01,1.560549288988113126e-01,1.585518121719360352e-01,1.523096114397048950e-01,1.448189765214920044e-01,1.410736590623855868e-01,1.485642939805984220e-01,1.448189765214920044e-01,1.385767757892608365e-01,1.385767757892608365e-01,1.398252248764038086e-01,1.360799074172973633e-01,1.285892575979233066e-01,1.335830241441726685e-01,1.385767757892608365e-01,1.360799074172973633e-01,1.310861408710479736e-01,1.285892575979233066e-01,1.323345750570297241e-01,1.310861408710479736e-01,1.285892575979233066e-01,1.310861408710479736e-01,1.360799074172973633e-01,1.310861408710479736e-01,1.360799074172973633e-01,1.573033779859542847e-01,1.660424470901489258e-01,1.610486954450607300e-01,1.573033779859542847e-01,1.722846478223800659e-01,1.860174834728240689e-01,1.797752827405929565e-01,1.647940129041671753e-01,1.598002463579178134e-01,1.585518121719360352e-01,1.360799074172973633e-01,1.235955059528350691e-01,1.186017468571663042e-01,1.260923892259597501e-01,1.273408234119415283e-01,1.223470643162727217e-01,1.235955059528350691e-01,1.310861408710479736e-01,1.622971296310425082e-01,2.846441864967346191e-01,5.680399537086485706e-01,9.113608002662657581e-01,1.000000000000000000e+00,6.479400992393493652e-01,1.685393303632736206e-01,1.098626703023910384e-01,2.184769064188003540e-01,1.535580456256866455e-01,1.210986301302909712e-01,1.360799074172973633e-01,1.298377066850661954e-01,1.260923892259597501e-01,1.285892575979233066e-01,1.460674107074737549e-01,1.448189765214920044e-01,1.398252248764038086e-01,1.435705423355102539e-01,1.598002463579178134e-01,1.647940129041671753e-01,1.672908812761307040e-01,0.000000000000000000e+00,0.000000000000000000e+00,0.000000000000000000e+00,0.000000000000000000e+00,0.000000000000000000e+00,0.000000000000000000e+00,0.000000000000000000e+00,0.000000000000000000e+00,0.000000000000000000e+00,0.000000000000000000e+00,0.000000000000000000e+00,0.000000000000000000e+00,0.000000000000000000e+00,0.000000000000000000e+00,0.000000000000000000e+00,0.000000000000000000e+00,0.000000000000000000e+00,0.000000000000000000e+00,0.000000000000000000e+00,0.000000000000000000e+00,0.000000000000000000e+00,0.000000000000000000e+00,0.000000000000000000e+00,0.000000000000000000e+00,0.000000000000000000e+00,0.000000000000000000e+00,0.000000000000000000e+00,0.000000000000000000e+00,0.000000000000000000e+00,0.000000000000000000e+00,0.000000000000000000e+00,0.000000000000000000e+00,0.000000000000000000e+00,0.000000000000000000e+00,0.000000000000000000e+00,0.000000000000000000e+00,0.000000000000000000e+00,0.000000000000000000e+00,0.000000000000000000e+00,0.000000000000000000e+00,0.000000000000000000e+00,0.000000000000000000e+00,0.000000000000000000e+00,0.000000000000000000e+00,0.000000000000000000e+00,0.000000000000000000e+00,0.000000000000000000e+00,0.000000000000000000e+00,0.000000000000000000e+00,0.000000000000000000e+00,0.000000000000000000e+00,0.000000000000000000e+00,0.000000000000000000e+00,0.000000000000000000e+00,0.000000000000000000e+00,0.000000000000000000e+00,0.000000000000000000e+00,0.000000000000000000e+00,0.000000000000000000e+00,0.000000000000000000e+00,0.000000000000000000e+00,0.000000000000000000e+00,0.000000000000000000e+00,0.000000000000000000e+00,0.000000000000000000e+00,0.000000000000000000e+00,0.000000000000000000e+00,0.000000000000000000e+00,0.000000000000000000e+00,0.000000000000000000e+00,0.000000000000000000e+00,0.000000000000000000e+00,0.000000000000000000e+00,0.000000000000000000e+00,0.000000000000000000e+00,0.000000000000000000e+00,0.000000000000000000e+00
8.960000276565549537e-01,9.800000190734864391e-01,6.039999723434447132e-01,6.800000369548797607e-02,0.000000000000000000e+00,1.199999973177909712e-01,1.480000019073486606e-01,1.319999992847442627e-01,1.439999938011169434e-01,1.599999964237213135e-01,1.400000005960464200e-01,1.439999938011169434e-01,1.599999964237213135e-01,1.640000045299530029e-01,1.480000019073486606e-01,1.439999938011169434e-01,1.519999951124191284e-01,1.400000005960464200e-01,1.199999973177909712e-01,1.280000060796737393e-01,1.480000019073486606e-01,1.480000019073486606e-01,1.199999973177909712e-01,1.080000028014183044e-01,1.319999992847442627e-01,1.519999951124191284e-01,1.480000019073486606e-01,1.560000032186508179e-01,1.879999935626983920e-01,2.160000056028366089e-01,2.160000056028366089e-01,2.399999946355819980e-01,2.840000092983245294e-01,2.919999957084655762e-01,2.720000147819519598e-01,2.680000066757202148e-01,2.840000092983245294e-01,2.680000066757202148e-01,2.479999959468841553e-01,2.440000027418136597e-01,2.399999946355819980e-01,2.360000014305115024e-01,2.360000014305115024e-01,2.280000001192092896e-01,2.360000014305115024e-01,2.319999933242797574e-01,2.119999974966048639e-01,2.039999961853027621e-01,2.080000042915343961e-01,2.080000042915343961e-01,1.920000016689300537e-01,2.000000029802322388e-01,1.920000016689300537e-01,1.920000016689300537e-01,1.840000003576278409e-01,2.000000029802322388e-01,2.119999974966048639e-01,2.280000001192092896e-01,2.199999988079071322e-01,2.479999959468841553e-01,2.639999985694885254e-01,2.800000011920928400e-01,3.039999902248382568e-01,3.160000145435333252e-01,3.240000009536743164e-01,3.160000145435333252e-01,2.840000092983245294e-01,2.520000040531158447e-01,2.520000040531158447e-01,2.440000027418136597e-01,1.920000016689300537e-01,1.800000071525573730e-01,2.000000029802322388e-01,2.000000029802322388e-01,1.800000071525573730e-01,1.959999948740004938e-01,2.199999988079071322e-01,2.479999959468841553e-01,2.960000038146973211e-01,4.160000085830687921e-01,5.839999914169311523e-01,8.040000200271606445e-01,8.920000195503234863e-01,1.000000000000000000e+00,8.679999709129332386e-01,3.479999899864196777e-01,3.200000151991843483e-02,4.800000041723250649e-02,1.239999979734420776e-01,1.640000045299530029e-01,1.439999938011169434e-01,1.560000032186508179e-01,1.640000045299530029e-01,1.599999964237213135e-01,1.519999951124191284e-01,1.599999964237213135e-01,1.679999977350234985e-01,1.640000045299530029e-01,1.640000045299530029e-01,1.599999964237213135e-01,0.000000000000000000e+00,0.000000000000000000e+00,0.000000000000000000e+00,0.000000000000000000e+00,0.000000000000000000e+00,0.000000000000000000e+00,0.000000000000000000e+00,0.000000000000000000e+00,0.000000000000000000e+00,0.000000000000000000e+00,0.000000000000000000e+00,0.000000000000000000e+00,0.000000000000000000e+00,0.000000000000000000e+00,0.000000000000000000e+00,0.000000000000000000e+00,0.000000000000000000e+00,0.000000000000000000e+00,0.000000000000000000e+00,0.000000000000000000e+00,0.000000000000000000e+00,0.000000000000000000e+00,0.000000000000000000e+00,0.000000000000000000e+00,0.000000000000000000e+00,0.000000000000000000e+00,0.000000000000000000e+00,0.000000000000000000e+00,0.000000000000000000e+00,0.000000000000000000e+00,0.000000000000000000e+00,0.000000000000000000e+00,0.000000000000000000e+00,0.000000000000000000e+00,0.000000000000000000e+00,0.000000000000000000e+00,0.000000000000000000e+00,0.000000000000000000e+00,0.000000000000000000e+00,0.000000000000000000e+00,0.000000000000000000e+00,0.000000000000000000e+00,0.000000000000000000e+00,0.000000000000000000e+00,0.000000000000000000e+00,0.000000000000000000e+00,0.000000000000000000e+00,0.000000000000000000e+00,0.000000000000000000e+00,0.000000000000000000e+00,0.000000000000000000e+00,0.000000000000000000e+00,0.000000000000000000e+00,0.000000000000000000e+00,0.000000000000000000e+00,0.000000000000000000e+00,0.000000000000000000e+00,0.000000000000000000e+00,0.000000000000000000e+00,0.000000000000000000e+00,0.000000000000000000e+00,0.000000000000000000e+00,0.000000000000000000e+00,0.000000000000000000e+00,0.000000000000000000e+00,0.000000000000000000e+00,0.000000000000000000e+00,0.000000000000000000e+00,0.000000000000000000e+00,0.000000000000000000e+00,0.000000000000000000e+00,0.000000000000000000e+00,0.000000000000000000e+00,0.000000000000000000e+00,0.000000000000000000e+00,0.000000000000000000e+00,0.000000000000000000e+00,0.000000000000000000e+00,0.000000000000000000e+00,0.000000000000000000e+00,0.000000000000000000e+00,0.000000000000000000e+00,0.000000000000000000e+00,0.000000000000000000e+00,0.000000000000000000e+00,0.000000000000000000e+00,0.000000000000000000e+00,0.000000000000000000e+00
9.935379624366760254e-01,9.596122503280639648e-01,6.155089139938354492e-01,1.922455579042434415e-01,1.696284264326095859e-01,2.148626744747161588e-01,1.873990297317504883e-01,1.615508943796157837e-01,1.647819131612777432e-01,1.550888568162918091e-01,1.437802910804748535e-01,1.324717253446578979e-01,1.308562159538269043e-01,1.308562159538269043e-01,1.195476576685905457e-01,1.130856201052665433e-01,1.130856201052665433e-01,1.098546013236045699e-01,1.098546013236045699e-01,1.033925712108612061e-01,1.082390919327736040e-01,1.098546013236045699e-01,1.001615524291992049e-01,7.754442840814591842e-02,6.946688145399093628e-02,6.623586267232894897e-02,5.654281005263328552e-02,4.361873865127562783e-02,4.200322926044464111e-02,3.231017664074898460e-02,1.453957986086606806e-02,0.000000000000000000e+00,3.231017850339412689e-03,1.938610710203647960e-02,3.877221420407295921e-02,6.462035328149796920e-02,9.208400547504423661e-02,1.227786764502525052e-01,1.340872347354888638e-01,1.486268192529678622e-01,1.599353849887847900e-01,1.712439358234405795e-01,1.712439358234405795e-01,1.712439358234405795e-01,1.777059733867644986e-01,1.970920860767364502e-01,2.019386142492294589e-01,1.906300485134124756e-01,1.873990297317504883e-01,1.954765766859054565e-01,1.970920860767364502e-01,1.938610672950744906e-01,2.067851424217224121e-01,2.051696330308913907e-01,1.938610672950744906e-01,1.922455579042434415e-01,1.922455579042434415e-01,1.922455579042434415e-01,1.873990297317504883e-01,1.744749546051025113e-01,1.809369921684265137e-01,1.809369921684265137e-01,1.793214827775955200e-01,1.712439358234405795e-01,1.777059733867644986e-01,1.841680109500884732e-01,1.825525015592575351e-01,1.744749546051025113e-01,1.857835203409194946e-01,1.954765766859054565e-01,1.987075954675674161e-01,1.890145391225814819e-01,1.728594452142715454e-01,1.744749546051025113e-01,1.809369921684265137e-01,1.890145391225814819e-01,2.003231048583984375e-01,2.019386142492294589e-01,1.938610672950744906e-01,1.890145391225814819e-01,1.841680109500884732e-01,1.938610672950744906e-01,1.841680109500884732e-01,1.760904639959335050e-01,1.809369921684265137e-01,1.873990297317504883e-01,1.809369921684265137e-01,1.744749546051025113e-01,1.760904639959335050e-01,1.841680109500884732e-01,1.825525015592575351e-01,1.841680109500884732e-01,1.825525015592575351e-01,1.906300485134124756e-01,2.003231048583984375e-01,2.003231048583984375e-01,1.954765766859054565e-01,1.922455579042434415e-01,1.906300485134124756e-01,1.825525015592575351e-01,1.777059733867644986e-01,2.617124319076538086e-01,4.684975743293761097e-01,7.754442691802977405e-01,1.000000000000000000e+00,9.870759248733520508e-01,7.124394178390504040e-01,2.536348998546600342e-01,1.243941858410835266e-01,1.712439358234405795e-01,1.550888568162918091e-01,1.292407065629959384e-01,1.276251971721648892e-01,1.292407065629959384e-01,1.195476576685905457e-01,1.163166388869286000e-01,1.179321482777595242e-01,1.211631670594215254e-01,1.179321482777595242e-01,1.147011294960975786e-01,1.163166388869286000e-01,1.114701107144355496e-01,1.050080806016922136e-01,9.369951486587523026e-02,9.369951486587523026e-02,0.000000000000000000e+00,0.000000000000000000e+00,0.000000000000000000e+00,0.000000000000000000e+00,0.000000000000000000e+00,0.000000000000000000e+00,0.000000000000000000e+00,0.000000000000000000e+00,0.000000000000000000e+00,0.000000000000000000e+00,0.000000000000000000e+00,0.000000000000000000e+00,0.000000000000000000e+00,0.000000000000000000e+00,0.000000000000000000e+00,0.000000000000000000e+00,0.000000000000000000e+00,0.000000000000000000e+00,0.000000000000000000e+00,0.000000000000000000e+00,0.000000000000000000e+00,0.000000000000000000e+00,0.000000000000000000e+00,0.000000000000000000e+00,0.000000000000000000e+00,0.000000000000000000e+00,0.000000000000000000e+00,0.000000000000000000e+00,0.000000000000000000e+00,0.000000000000000000e+00,0.000000000000000000e+00,0.000000000000000000e+00,0.000000000000000000e+00,0.000000000000000000e+00,0.000000000000000000e+00,0.000000000000000000e+00,0.000000000000000000e+00,0.000000000000000000e+00,0.000000000000000000e+00,0.000000000000000000e+00,0.000000000000000000e+00,0.000000000000000000e+00,0.000000000000000000e+00,0.000000000000000000e+00,0.000000000000000000e+00,0.000000000000000000e+00,0.000000000000000000e+00,0.000000000000000000e+00,0.000000000000000000e+00,0.000000000000000000e+00,0.000000000000000000e+00,0.000000000000000000e+00,0.000000000000000000e+00,0.000000000000000000e+00,0.000000000000000000e+00,0.000000000000000000e+00,0.000000000000000000e+00,0.000000000000000000e+00,0.000000000000000000e+00,0.000000000000000000e+00,0.000000000000000000e+00,0.000000000000000000e+00,0.000000000000000000e+00
1.000000000000000000e+00,8.341231942176818848e-01,5.260663628578184925e-01,2.843602001667022705e-01,1.706161201000213623e-01,1.184834092855453769e-01,1.279620826244354248e-01,1.611374467611312866e-01,1.753554493188858032e-01,1.516587734222412387e-01,1.706161201000213623e-01,1.753554493188858032e-01,1.943127959966659546e-01,1.848341226577758789e-01,1.943127959966659546e-01,1.943127959966659546e-01,2.037914693355560303e-01,2.180094718933105191e-01,2.227488160133361539e-01,2.085307985544204712e-01,2.369668185710906982e-01,2.559241652488708496e-01,2.322274893522262573e-01,2.369668185710906982e-01,2.796208560466766357e-01,2.606635093688964289e-01,2.843602001667022705e-01,2.559241652488708496e-01,3.033175468444824774e-01,3.222748935222625732e-01,3.175355494022369385e-01,3.127962052822112482e-01,3.554502427577972412e-01,3.649289011955261230e-01,3.601895868778228760e-01,3.507108986377716064e-01,3.933649361133575439e-01,3.744075894355773371e-01,3.696682453155517578e-01,3.696682453155517578e-01,3.601895868778228760e-01,3.317535519599913996e-01,2.843602001667022705e-01,2.701421678066253662e-01,2.559241652488708496e-01,2.085307985544204712e-01,2.037914693355560303e-01,1.753554493188858032e-01,1.611374467611312866e-01,1.658767759799956998e-01,1.563981026411056241e-01,1.421801000833511353e-01,1.563981026411056241e-01,1.469194293022155484e-01,1.232227459549903731e-01,1.232227459549903731e-01,1.327014267444610596e-01,9.004739671945571899e-02,7.582938671112061935e-02,8.056872338056562943e-02,9.478673338890075684e-02,6.635071337223054366e-02,6.161137297749518654e-02,5.213269963860511780e-02,4.739336669445037148e-02,1.895734667778015484e-02,2.369668334722518574e-02,2.369668334722518574e-02,2.369668334722518574e-02,0.000000000000000000e+00,3.791469335556030967e-02,3.317535668611527183e-02,2.843601815402508129e-02,3.317535668611527183e-02,5.213269963860511780e-02,4.739336669445037148e-02,4.739336669445037148e-02,4.739336669445037148e-02,7.109005004167558150e-02,8.530806005001068115e-02,7.582938671112061935e-02,6.635071337223054366e-02,8.530806005001068115e-02,8.056872338056562943e-02,9.478673338890075684e-02,1.232227459549903731e-01,1.516587734222412387e-01,1.374407559633255005e-01,1.137440726161003252e-01,1.137440726161003252e-01,1.090047359466552734e-01,5.213269963860511780e-02,8.530806005001068115e-02,8.530806005001068115e-02,1.421800907701253718e-02,0.000000000000000000e+00,4.265403002500534058e-02,4.739336669445036974e-03,3.317535668611527183e-02,4.739336669445037148e-02,9.478673338890075684e-02,1.090047359466552734e-01,1.137440726161003252e-01,1.042653992772102356e-01,1.421801000833511353e-01,1.469194293022155484e-01,1.706161201000213623e-01,1.706161201000213623e-01,1.753554493188858032e-01,1.421801000833511353e-01,1.563981026411056241e-01,5.687203630805016258e-02,2.369668334722518574e-02,2.464454919099807462e-01,3.933649361133575439e-01,4.549762904644013006e-01,9.478672742843630150e-01,9.336493015289305530e-01,5.260663628578184925e-01,2.559241652488708496e-01,2.274881452322006503e-01,1.943127959966659546e-01,1.848341226577758789e-01,2.132701426744460782e-01,2.417061626911163608e-01,2.180094718933105191e-01,2.274881452322006503e-01,2.559241652488708496e-01,2.511848211288452148e-01,2.227488160133361539e-01,2.464454919099807462e-01,2.559241652488708496e-01,2.985782027244568426e-01,2.843602001667022705e-01,2.890995144844055176e-01,2.938388586044311523e-01,3.270142078399658203e-01,2.985782027244568426e-01,3.175355494022369385e-01,0.000000000000000000e+00,0.000000000000000000e+00,0.000000000000000000e+00,0.000000000000000000e+00,0.000000000000000000e+00,0.000000000000000000e+00,0.000000000000000000e+00,0.000000000000000000e+00,0.000000000000000000e+00,0.000000000000000000e+00,0.000000000000000000e+00,0.000000000000000000e+00,0.000000000000000000e+00,0.000000000000000000e+00,0.000000000000000000e+00,0.000000000000000000e+00,0.000000000000000000e+00,0.000000000000000000e+00,0.000000000000000000e+00,0.000000000000000000e+00,0.000000000000000000e+00,0.000000000000000000e+00,0.000000000000000000e+00,0.000000000000000000e+00,0.000000000000000000e+00,0.000000000000000000e+00,0.000000000000000000e+00,0.000000000000000000e+00,0.000000000000000000e+00,0.000000000000000000e+00,0.000000000000000000e+00,0.000000000000000000e+00,0.000000000000000000e+00,0.000000000000000000e+00,0.000000000000000000e+00,0.000000000000000000e+00,0.000000000000000000e+00,0.000000000000000000e+00,0.000000000000000000e+00,0.000000000000000000e+00,0.000000000000000000e+00,0.000000000000000000e+00,0.000000000000000000e+00,0.000000000000000000e+00,0.000000000000000000e+00,0.000000000000000000e+00,0.000000000000000000e+00,0.000000000000000000e+00,0.000000000000000000e+00
0.000000000000000000e+00,7.547169923782348633e-02,1.556603759527206421e-01,2.500000000000000000e-01,3.066037595272064209e-01,3.018867969512939453e-01,3.207547068595886230e-01,3.113207519054412842e-01,3.066037595272064209e-01,2.924528419971466064e-01,3.018867969512939453e-01,2.971698045730590265e-01,2.924528419971466064e-01,2.830188572406768244e-01,2.971698045730590265e-01,2.830188572406768244e-01,2.924528419971466064e-01,2.924528419971466064e-01,2.924528419971466064e-01,3.066037595272064209e-01,2.971698045730590265e-01,2.971698045730590265e-01,3.113207519054412842e-01,3.113207519054412842e-01,3.113207519054412842e-01,3.207547068595886230e-01,3.254716992378234863e-01,3.349056541919708252e-01,3.632075488567352295e-01,3.632075488567352295e-01,3.726415038108825684e-01,3.820754587650299072e-01,3.867924511432647705e-01,4.150943458080291748e-01,4.103773534297943115e-01,4.292452931404113770e-01,4.433962404727935791e-01,4.433962404727935791e-01,4.481132030487060547e-01,4.481132030487060547e-01,4.528301954269409180e-01,4.622641503810883123e-01,4.575471580028533936e-01,4.528301954269409180e-01,4.481132030487060547e-01,4.386792480945587158e-01,4.481132030487060547e-01,4.433962404727935791e-01,4.433962404727935791e-01,4.150943458080291748e-01,4.386792480945587158e-01,4.150943458080291748e-01,4.056603908538817249e-01,4.056603908538817249e-01,3.962264060974121094e-01,3.820754587650299072e-01,3.773584961891174316e-01,3.679245412349700928e-01,3.537735939025878906e-01,3.443396091461181641e-01,3.490566015243530273e-01,3.396226465702056885e-01,3.254716992378234863e-01,3.443396091461181641e-01,3.349056541919708252e-01,3.443396091461181641e-01,3.396226465702056885e-01,3.537735939025878906e-01,3.632075488567352295e-01,3.537735939025878906e-01,3.726415038108825684e-01,3.584905564785004217e-01,3.773584961891174316e-01,3.773584961891174316e-01,3.773584961891174316e-01,3.726415038108825684e-01,3.915094435214995783e-01,3.915094435214995783e-01,3.820754587650299072e-01,3.962264060974121094e-01,3.962264060974121094e-01,3.962264060974121094e-01,4.056603908538817249e-01,3.915094435214995783e-01,4.056603908538817249e-01,4.056603908538817249e-01,4.150943458080291748e-01,4.103773534297943115e-01,3.962264060974121094e-01,4.056603908538817249e-01,4.009433984756469727e-01,4.150943458080291748e-01,4.103773534297943115e-01,4.103773534297943115e-01,4.150943458080291748e-01,4.198113083839417059e-01,4.150943458080291748e-01,4.198113083839417059e-01,4.245283007621765137e-01,4.245283007621765137e-01,4.245283007621765137e-01,4.198113083839417059e-01,4.292452931404113770e-01,4.292452931404113770e-01,4.433962404727935791e-01,4.764150977134705145e-01,5.000000000000000000e-01,5.188679099082946777e-01,5.660377144813536487e-01,5.896226167678833008e-01,5.990566015243530273e-01,6.367924809455871582e-01,6.556603908538817249e-01,5.707547068595886230e-01,4.764150977134705145e-01,3.820754587650299072e-01,3.867924511432647705e-01,3.726415038108825684e-01,3.915094435214995783e-01,3.820754587650299072e-01,3.867924511432647705e-01,3.867924511432647705e-01,3.773584961891174316e-01,3.773584961891174316e-01,3.867924511432647705e-01,3.915094435214995783e-01,3.915094435214995783e-01,3.820754587650299072e-01,4.009433984756469727e-01,5.801886916160583496e-01,9.056603908538818359e-01,8.915094137191772461e-01,9.669811129570009545e-01,9.905660152435301624e-01,1.000000000000000000e+00,9.292452931404111549e-01,5.235849022865296520e-01,2.028301954269408625e-01,0.000000000000000000e+00,4.716981202363967202e-02,1.367924511432647705e-01,2.358490526676177423e-01,2.924528419971466064e-01,2.971698045730590265e-01,3.018867969512939453e-01,2.924528419971466064e-01,2.783018946647644043e-01,2.735849022865295965e-01,2.735849022865295965e-01,2.735849022865295965e-01,2.688679099082946777e-01,2.688679099082946777e-01,2.688679099082946777e-01,2.735849022865295965e-01,2.688679099082946777e-01,2.594339549541473389e-01,2.594339549541473389e-01,2.735849022865295965e-01,2.830188572406768244e-01,0.000000000000000000e+00,0.000000000000000000e+00,0.000000000000000000e+00,0.000000000000000000e+00,0.000000000000000000e+00,0.000000000000000000e+00,0.000000000000000000e+00,0.000000000000000000e+00,0.000000000000000000e+00,0.000000000000000000e+00,0.000000000000000000e+00,0.000000000000000000e+00,0.000000000000000000e+00,0.000000000000000000e+00,0.000000000000000000e+00,0.000000000000000000e+00,0.000000000000000000e+00,0.000000000000000000e+00,0.000000000000000000e+00,0.000000000000000000e+00,0.000000000000000000e+00,0.000000000000000000e+00,0.000000000000000000e+00,0.000000000000000000e+00,0.000000000000000000e+00,0.000000000000000000e+00,0.000000000000000000e+00,0.000000000000000000e+00,0.000000000000000000e+00
9.619565010070797451e-01,8.505434989929198109e-01,2.527174055576324463e-01,8.152173832058906555e-03,1.222826093435287198e-01,2.391304373741149070e-01,2.717391252517699640e-01,2.907608747482299805e-01,2.880434691905975342e-01,2.826086878776550293e-01,2.934782505035400391e-01,3.016304373741149347e-01,2.989130318164824884e-01,3.016304373741149347e-01,3.152174055576324463e-01,3.315217494964600720e-01,3.179347813129424494e-01,3.423913121223449707e-01,3.559782505035400391e-01,3.967391252517700195e-01,4.184782505035399280e-01,4.048913121223449707e-01,4.646739065647124134e-01,4.836956560611724854e-01,4.809782505035398725e-01,5.108695626258850098e-01,5.000000000000000000e-01,5.244565010070800781e-01,4.701086878776549738e-01,4.782608747482299805e-01,4.483695626258849543e-01,4.375000000000000000e-01,4.021739065647124689e-01,3.913043439388275146e-01,3.831521868705750067e-01,3.641304373741149347e-01,3.586956560611724854e-01,3.614130318164825439e-01,3.342391252517700195e-01,3.641304373741149347e-01,3.206521868705748957e-01,3.070652186870574396e-01,3.288043439388275146e-01,3.423913121223449707e-01,3.206521868705748957e-01,3.206521868705748957e-01,3.260869681835174561e-01,3.478260934352874756e-01,3.423913121223449707e-01,3.505434691905975342e-01,3.451086878776550293e-01,3.559782505035400391e-01,3.478260934352874756e-01,3.750000000000000000e-01,3.831521868705750067e-01,3.804347813129424494e-01,3.804347813129424494e-01,3.804347813129424494e-01,3.750000000000000000e-01,3.804347813129424494e-01,3.614130318164825439e-01,3.722825944423676092e-01,3.532608747482299805e-01,3.777174055576325018e-01,3.559782505035400391e-01,3.423913121223449707e-01,3.152174055576324463e-01,3.260869681835174561e-01,3.125000000000000000e-01,3.097825944423675537e-01,2.989130318164824884e-01,3.016304373741149347e-01,3.152174055576324463e-01,2.907608747482299805e-01,2.663043439388275146e-01,3.750000000000000000e-01,6.657608747482299805e-01,1.000000000000000000e+00,7.961956262588499866e-01,1.739130467176437100e-01,0.000000000000000000e+00,1.548912972211837491e-01,2.500000000000000000e-01,2.880434691905975342e-01,2.717391252517699640e-01,2.934782505035400391e-01,2.934782505035400391e-01,3.016304373741149347e-01,2.989130318164824884e-01,2.989130318164824884e-01,3.097825944423675537e-01,3.369565308094025213e-01,3.233695626258850098e-01,0.000000000000000000e+00,0.000000000000000000e+00,0.000000000000000000e+00,0.000000000000000000e+00,0.000000000000000000e+00,0.000000000000000000e+00,0.000000000000000000e+00,0.000000000000000000e+00,0.000000000000000000e+00,0.000000000000000000e+00,0.000000000000000000e+00,0.000000000000000000e+00,0.000000000000000000e+00,0.000000000000000000e+00,0.000000000000000000e+00,0.000000000000000000e+00,0.000000000000000000e+00,0.000000000000000000e+00,0.000000000000000000e+00,0.000000000000000000e+00,0.000000000000000000e+00,0.000000000000000000e+00,0.000000000000000000e+00,0.000000000000000000e+00,0.000000000000000000e+00,0.000000000000000000e+00,0.000000000000000000e+00,0.000000000000000000e+00,0.000000000000000000e+00,0.000000000000000000e+00,0.000000000000000000e+00,0.000000000000000000e+00,0.000000000000000000e+00,0.000000000000000000e+00,0.000000000000000000e+00,0.000000000000000000e+00,0.000000000000000000e+00,0.000000000000000000e+00,0.000000000000000000e+00,0.000000000000000000e+00,0.000000000000000000e+00,0.000000000000000000e+00,0.000000000000000000e+00,0.000000000000000000e+00,0.000000000000000000e+00,0.000000000000000000e+00,0.000000000000000000e+00,0.000000000000000000e+00,0.000000000000000000e+00,0.000000000000000000e+00,0.000000000000000000e+00,0.000000000000000000e+00,0.000000000000000000e+00,0.000000000000000000e+00,0.000000000000000000e+00,0.000000000000000000e+00,0.000000000000000000e+00,0.000000000000000000e+00,0.000000000000000000e+00,0.000000000000000000e+00,0.000000000000000000e+00,0.000000000000000000e+00,0.000000000000000000e+00,0.000000000000000000e+00,0.000000000000000000e+00,0.000000000000000000e+00,0.000000000000000000e+00,0.000000000000000000e+00,0.000000000000000000e+00,0.000000000000000000e+00,0.000000000000000000e+00,0.000000000000000000e+00,0.000000000000000000e+00,0.000000000000000000e+00,0.000000000000000000e+00,0.000000000000000000e+00,0.000000000000000000e+00,0.000000000000000000e+00,0.000000000000000000e+00,0.000000000000000000e+00,0.000000000000000000e+00,0.000000000000000000e+00,0.000000000000000000e+00,0.000000000000000000e+00,0.000000000000000000e+00,0.000000000000000000e+00,0.000000000000000000e+00,0.000000000000000000e+00,0.000000000000000000e+00,0.000000000000000000e+00,0.000000000000000000e+00,0.000000000000000000e+00,0.000000000000000000e+00,0.000000000000000000e+00,0.000000000000000000e+00
9.851694703102111816e-01,9.491525292396544300e-01,5.042372941970825195e-01,5.508474633097647927e-02,1.165254265069961687e-01,3.601695001125336248e-01,4.470339119434356689e-01,4.406779706478118896e-01,4.406779706478118896e-01,4.449152648448944092e-01,4.597457647323607843e-01,4.682203531265258234e-01,4.724576175212860107e-01,4.682203531265258234e-01,4.766949117183684193e-01,4.915254116058349054e-01,4.957627058029174805e-01,5.000000000000000000e-01,5.190678238868714489e-01,5.338982939720152698e-01,5.444915294647215687e-01,5.529661178588868298e-01,5.741525292396545410e-01,5.889830589294432484e-01,6.038135886192320667e-01,6.080508232116699219e-01,6.122881174087525524e-01,6.228813529014587402e-01,6.250000000000000000e-01,6.165254116058349609e-01,6.207627058029174805e-01,6.271186470985412598e-01,6.101694703102111816e-01,5.783898234367369495e-01,5.550847649574278675e-01,5.317796468734740101e-01,5.000000000000000000e-01,4.703389704227449175e-01,4.512711763381958008e-01,4.449152648448944092e-01,4.364406764507293701e-01,4.194915294647216242e-01,4.237288236618041437e-01,4.216101765632628284e-01,4.216101765632628284e-01,4.216101765632628284e-01,4.258474707603455700e-01,4.300847351551055908e-01,4.237288236618041437e-01,4.194915294647216242e-01,4.322033822536468506e-01,4.300847351551055908e-01,4.279660880565643311e-01,4.194915294647216242e-01,4.152542352676391602e-01,4.216101765632628284e-01,4.152542352676391602e-01,4.067796468734740656e-01,4.046610295772551380e-01,4.088982939720153253e-01,4.025423824787139893e-01,3.961864411830902655e-01,3.983050882816314142e-01,4.004237353801727295e-01,3.919491469860076904e-01,3.855932056903839666e-01,3.919491469860076904e-01,3.877118527889252264e-01,3.877118527889252264e-01,3.792372941970825195e-01,3.898304998874663752e-01,3.919491469860076904e-01,3.961864411830902655e-01,3.855932056903839666e-01,3.961864411830902655e-01,4.152542352676391602e-01,4.237288236618041437e-01,4.279660880565643311e-01,4.427966177463531494e-01,4.512711763381958008e-01,4.427966177463531494e-01,4.258474707603455700e-01,4.300847351551055908e-01,4.131355881690979004e-01,3.855932056903839666e-01,3.771186470985413153e-01,3.644067943096160334e-01,3.665254116058349609e-01,3.644067943096160334e-01,3.580508530139923096e-01,3.559322059154509943e-01,3.644067943096160334e-01,3.580508530139923096e-01,3.580508530139923096e-01,3.644067943096160334e-01,3.750000000000000000e-01,3.813559412956237238e-01,3.940677940845490057e-01,5.105932354927062988e-01,7.309321761131286621e-01,1.000000000000000000e+00,9.957627058029175915e-01,5.296609997749328613e-01,0.000000000000000000e+00,0.000000000000000000e+00,2.309322059154510498e-01,3.686440587043762207e-01,4.152542352676391602e-01,4.110169410705566406e-01,4.088982939720153253e-01,4.194915294647216242e-01,4.322033822536468506e-01,4.385593235492705744e-01,4.364406764507293701e-01,4.427966177463531494e-01,4.618644118309020996e-01,4.555084705352783203e-01,4.724576175212860107e-01,4.894067943096159778e-01,0.000000000000000000e+00,0.000000000000000000e+00,0.000000000000000000e+00,0.000000000000000000e+00,0.000000000000000000e+00,0.000000000000000000e+00,0.000000000000000000e+00,0.000000000000000000e+00,0.000000000000000000e+00,0.000000000000000000e+00,0.000000000000000000e+00,0.000000000000000000e+00,0.000000000000000000e+00,0.000000000000000000e+00,0.000000000000000000e+00,0.000000000000000000e+00,0.000000000000000000e+00,0.000000000000000000e+00,0.000000000000000000e+00,0.000000000000000000e+00,0.000000000000000000e+00,0.000000000000000000e+00,0.000000000000000000e+00,0.000000000000000000e+00,0.000000000000000000e+00,0.000000000000000000e+00,0.000000000000000000e+00,0.000000000000000000e+00,0.000000000000000000e+00,0.000000000000000000e+00,0.000000000000000000e+00,0.000000000000000000e+00,0.000000000000000000e+00,0.000000000000000000e+00,0.000000000000000000e+00,0.000000000000000000e+00,0.000000000000000000e+00,0.000000000000000000e+00,0.000000000000000000e+00,0.000000000000000000e+00,0.000000000000000000e+00,0.000000000000000000e+00,0.000000000000000000e+00,0.000000000000000000e+00,0.000000000000000000e+00,0.000000000000000000e+00,0.000000000000000000e+00,0.000000000000000000e+00,0.000000000000000000e+00,0.000000000000000000e+00,0.000000000000000000e+00,0.000000000000000000e+00,0.000000000000000000e+00,0.000000000000000000e+00,0.000000000000000000e+00,0.000000000000000000e+00,0.000000000000000000e+00,0.000000000000000000e+00,0.000000000000000000e+00,0.000000000000000000e+00,0.000000000000000000e+00,0.000000000000000000e+00,0.000000000000000000e+00,0.000000000000000000e+00,0.000000000000000000e+00,0.000000000000000000e+00,0.000000000000000000e+00,0.000000000000000000e+00,0.000000000000000000e+00
1.000000000000000000e+00,8.920308351516722523e-01,5.115681290626524769e-01,2.185090035200119019e-01,1.156812310218811313e-01,1.233933195471763472e-01,8.226221054792402787e-02,6.169665977358817360e-02,3.856041282415390709e-02,2.570694126188755035e-02,1.542416494339704340e-02,1.028277631849050348e-02,2.570694079622626305e-03,0.000000000000000000e+00,1.028277631849050348e-02,2.056555263698100697e-02,4.884318634867668152e-02,5.912596359848974747e-02,7.712082564830781417e-02,8.740359544754028320e-02,9.511568397283554077e-02,9.511568397283554077e-02,1.028277650475502153e-01,1.131105422973632812e-01,1.105398461222648621e-01,1.028277650475502153e-01,1.053984612226486206e-01,1.079691499471664429e-01,1.002570688724517683e-01,1.028277650475502153e-01,8.997429162263870239e-02,7.712082564830781417e-02,5.141388252377510071e-02,4.884318634867668152e-02,3.341902419924736023e-02,3.341902419924736023e-02,4.113110527396201394e-02,5.912596359848974747e-02,6.426735222339630127e-02,8.226221054792402787e-02,8.226221054792402787e-02,7.969151437282560868e-02,7.455012947320936723e-02,6.426735222339630127e-02,6.683804839849472046e-02,6.426735222339630127e-02,6.683804839849472046e-02,6.426735222339630127e-02,6.683804839849472046e-02,5.912596359848974747e-02,5.655527114868164062e-02,5.655527114868164062e-02,4.884318634867668152e-02,4.884318634867668152e-02,5.141388252377510071e-02,4.370179772377014160e-02,4.627249389886854691e-02,5.398457497358322144e-02,6.940873712301255660e-02,1.028277650475502153e-01,1.028277650475502153e-01,1.105398461222648621e-01,1.053984612226486206e-01,1.028277650475502153e-01,8.997429162263870239e-02,8.226221054792402787e-02,8.483290672302246094e-02,7.455012947320936723e-02,6.940873712301255660e-02,6.426735222339630127e-02,6.169665977358817360e-02,5.655527114868164062e-02,5.398457497358322144e-02,5.655527114868164062e-02,4.627249389886854691e-02,5.141388252377510071e-02,4.884318634867668152e-02,4.884318634867668152e-02,4.884318634867668152e-02,6.683804839849472046e-02,7.712082564830781417e-02,7.969151437282560868e-02,9.254498779773709383e-02,1.079691499471664429e-01,1.079691499471664429e-01,1.028277650475502153e-01,9.511568397283554077e-02,9.254498779773709383e-02,8.483290672302246094e-02,7.455012947320936723e-02,6.426735222339630127e-02,7.197943329811096191e-02,6.426735222339630127e-02,6.426735222339630127e-02,6.426735222339630127e-02,5.912596359848974747e-02,5.398457497358322144e-02,6.683804839849472046e-02,6.940873712301255660e-02,8.226221054792402787e-02,8.740359544754028320e-02,8.226221054792402787e-02,9.254498779773709383e-02,1.079691499471664429e-01,1.182519271969794949e-01,1.105398461222648621e-01,1.053984612226486206e-01,1.053984612226486206e-01,1.259640157222747803e-01,1.568123400211333951e-01,1.876606643199920654e-01,2.827763557434082031e-01,4.730077087879179798e-01,6.863753199577331543e-01,8.740360140800476074e-01,8.534704446792602539e-01,5.141388177871704102e-01,2.210796922445296686e-01,7.969151437282560868e-02,7.197943329811096191e-02,5.655527114868164062e-02,4.884318634867668152e-02,4.884318634867668152e-02,5.655527114868164062e-02,5.655527114868164062e-02,5.141388252377510071e-02,5.398457497358322144e-02,4.884318634867668152e-02,5.398457497358322144e-02,3.598971664905548096e-02,4.113110527396201394e-02,0.000000000000000000e+00,0.000000000000000000e+00,0.000000000000000000e+00,0.000000000000000000e+00,0.000000000000000000e+00,0.000000000000000000e+00,0.000000000000000000e+00,0.000000000000000000e+00,0.000000000000000000e+00,0.000000000000000000e+00,0.000000000000000000e+00,0.000000000000000000e+00,0.000000000000000000e+00,0.000000000000000000e+00,0.000000000000000000e+00,0.000000000000000000e+00,0.000000000000000000e+00,0.000000000000000000e+00,0.000000000000000000e+00,0.000000000000000000e+00,0.000000000000000000e+00,0.000000000000000000e+00,0.000000000000000000e+00,0.000000000000000000e+00,0.000000000000000000e+00,0.000000000000000000e+00,0.000000000000000000e+00,0.000000000000000000e+00,0.000000000000000000e+00,0.000000000000000000e+00,0.000000000000000000e+00,0.000000000000000000e+00,0.000000000000000000e+00,0.000000000000000000e+00,0.000000000000000000e+00,0.000000000000000000e+00,0.000000000000000000e+00,0.000000000000000000e+00,0.000000000000000000e+00,0.000000000000000000e+00,0.000000000000000000e+00,0.000000000000000000e+00,0.000000000000000000e+00,0.000000000000000000e+00,0.000000000000000000e+00,0.000000000000000000e+00,0.000000000000000000e+00,0.000000000000000000e+00,0.000000000000000000e+00,0.000000000000000000e+00,0.000000000000000000e+00,0.000000000000000000e+00,0.000000000000000000e+00,0.000000000000000000e+00,0.000000000000000000e+00,0.000000000000000000e+00,0.000000000000000000e+00
1.000000000000000000e+00,6.666666865348814808e-01,1.004566177725791931e-01,3.652967885136604309e-02,7.305935770273208618e-02,5.022830888628959656e-02,1.826483942568302155e-02,1.050228327512741089e-01,1.324200928211211881e-01,9.132420271635056930e-02,1.187214627861976762e-01,1.826484054327011386e-01,2.420091331005096436e-01,2.648401856422424316e-01,2.557077705860137384e-01,2.602739632129668634e-01,2.648401856422424316e-01,2.557077705860137384e-01,2.785388231277465265e-01,2.922374308109284002e-01,2.876712381839752752e-01,2.694063782691956122e-01,2.876712381839752752e-01,2.968036532402038574e-01,3.059360682964324951e-01,3.059360682964324951e-01,3.333333432674407404e-01,3.561643958091736395e-01,3.652968108654022772e-01,3.652968108654022772e-01,4.018264710903167725e-01,4.383561611175536554e-01,4.840182662010192871e-01,4.885844886302946888e-01,5.296803712844848633e-01,5.707762837409972034e-01,5.525113940238951526e-01,5.388127565383912243e-01,5.205479264259337269e-01,5.068492889404296875e-01,4.566209912300108753e-01,4.063926935195922296e-01,3.744292259216308594e-01,3.515981733798981268e-01,2.968036532402038574e-01,2.602739632129668634e-01,2.328767180442810059e-01,2.602739632129668634e-01,2.602739632129668634e-01,2.511415481567382257e-01,2.557077705860137384e-01,2.602739632129668634e-01,2.602739632129668634e-01,2.374429255723952414e-01,2.465753406286239624e-01,2.602739632129668634e-01,2.191780805587768277e-01,2.146118730306625366e-01,2.374429255723952414e-01,2.648401856422424316e-01,2.511415481567382257e-01,2.465753406286239624e-01,2.648401856422424316e-01,2.831050157546997070e-01,3.013698756694793701e-01,2.785388231277465265e-01,2.739726006984710138e-01,2.648401856422424316e-01,2.420091331005096436e-01,2.739726006984710138e-01,2.922374308109284002e-01,2.785388231277465265e-01,2.831050157546997070e-01,2.648401856422424316e-01,2.739726006984710138e-01,2.602739632129668634e-01,2.602739632129668634e-01,2.785388231277465265e-01,2.831050157546997070e-01,2.831050157546997070e-01,3.059360682964324951e-01,2.922374308109284002e-01,3.059360682964324951e-01,3.515981733798981268e-01,4.429223835468292236e-01,6.894977092742919922e-01,9.086757898330688477e-01,6.118721365928649902e-01,7.305935770273208618e-02,0.000000000000000000e+00,6.392694264650344849e-02,9.132420271635056930e-02,1.004566177725791931e-01,1.780821979045868197e-01,1.643835604190826138e-01,1.643835604190826138e-01,1.826484054327011386e-01,2.420091331005096436e-01,3.013698756694793701e-01,3.196347057819366455e-01,2.922374308109284002e-01,2.922374308109284002e-01,3.196347057819366455e-01,0.000000000000000000e+00,0.000000000000000000e+00,0.000000000000000000e+00,0.000000000000000000e+00,0.000000000000000000e+00,0.000000000000000000e+00,0.000000000000000000e+00,0.000000000000000000e+00,0.000000000000000000e+00,0.000000000000000000e+00,0.000000000000000000e+00,0.000000000000000000e+00,0.000000000000000000e+00,0.000000000000000000e+00,0.000000000000000000e+00,0.000000000000000000e+00,0.000000000000000000e+00,0.000000000000000000e+00,0.000000000000000000e+00,0.000000000000000000e+00,0.000000000000000000e+00,0.000000000000000000e+00,0.000000000000000000e+00,0.000000000000000000e+00,0.000000000000000000e+00,0.000000000000000000e+00,0.000000000000000000e+00,0.000000000000000000e+00,0.000000000000000000e+00,0.000000000000000000e+00,0.000000000000000000e+00,0.000000000000000000e+00,0.000000000000000000e+00,0.000000000000000000e+00,0.000000000000000000e+00,0.000000000000000000e+00,0.000000000000000000e+00,0.000000000000000000e+00,0.000000000000000000e+00,0.000000000000000000e+00,0.000000000000000000e+00,0.000000000000000000e+00,0.000000000000000000e+00,0.000000000000000000e+00,0.000000000000000000e+00,0.000000000000000000e+00,0.000000000000000000e+00,0.000000000000000000e+00,0.000000000000000000e+00,0.000000000000000000e+00,0.000000000000000000e+00,0.000000000000000000e+00,0.000000000000000000e+00,0.000000000000000000e+00,0.000000000000000000e+00,0.000000000000000000e+00,0.000000000000000000e+00,0.000000000000000000e+00,0.000000000000000000e+00,0.000000000000000000e+00,0.000000000000000000e+00,0.000000000000000000e+00,0.000000000000000000e+00,0.000000000000000000e+00,0.000000000000000000e+00,0.000000000000000000e+00,0.000000000000000000e+00,0.000000000000000000e+00,0.000000000000000000e+00,0.000000000000000000e+00,0.000000000000000000e+00,0.000000000000000000e+00,0.000000000000000000e+00,0.000000000000000000e+00,0.000000000000000000e+00,0.000000000000000000e+00,0.000000000000000000e+00,0.000000000000000000e+00,0.000000000000000000e+00,0.000000000000000000e+00,0.000000000000000000e+00,0.000000000000000000e+00,0.000000000000000000e+00,0.000000000000000000e+00,1.000000000000000000e+00
9.836956262588499866e-01,1.000000000000000000e+00,3.315217494964600720e-01,0.000000000000000000e+00,1.086956486105918745e-01,1.630434840917587280e-01,1.304347813129425049e-01,1.902173906564712247e-01,2.880434691905975342e-01,2.228260934352875033e-01,1.793478280305862427e-01,2.717391252517699640e-01,4.021739065647124689e-01,4.239130318164825439e-01,3.967391252517700195e-01,4.184782505035399280e-01,4.456521868705750067e-01,4.402174055576325018e-01,4.347825944423676092e-01,4.347825944423676092e-01,4.402174055576325018e-01,4.402174055576325018e-01,4.510869681835175116e-01,4.619565308094025213e-01,4.891304373741148792e-01,4.782608747482299805e-01,4.619565308094025213e-01,5.054348111152648926e-01,5.489130616188049316e-01,5.597826242446899414e-01,5.923913121223449707e-01,6.521739363670349121e-01,6.847826242446899414e-01,6.684782505035400391e-01,6.630434989929199219e-01,7.228260636329650879e-01,7.173913121223449707e-01,6.793478131294249378e-01,6.576086878776550293e-01,6.304348111152648926e-01,5.652173757553100586e-01,5.054348111152648926e-01,4.836956560611724854e-01,4.673913121223450262e-01,4.619565308094025213e-01,4.347825944423676092e-01,4.021739065647124689e-01,4.021739065647124689e-01,4.130434691905974787e-01,4.130434691905974787e-01,3.750000000000000000e-01,3.967391252517700195e-01,4.239130318164825439e-01,3.804347813129424494e-01,3.913043439388275146e-01,4.130434691905974787e-01,4.130434691905974787e-01,4.130434691905974787e-01,4.021739065647124689e-01,4.239130318164825439e-01,4.130434691905974787e-01,4.347825944423676092e-01,4.293478131294249378e-01,4.184782505035399280e-01,4.347825944423676092e-01,4.456521868705750067e-01,4.130434691905974787e-01,4.130434691905974787e-01,4.347825944423676092e-01,4.293478131294249378e-01,4.130434691905974787e-01,4.402174055576325018e-01,4.184782505035399280e-01,4.021739065647124689e-01,3.967391252517700195e-01,4.021739065647124689e-01,4.347825944423676092e-01,4.021739065647124689e-01,4.076086878776550293e-01,4.076086878776550293e-01,3.967391252517700195e-01,4.021739065647124689e-01,4.076086878776550293e-01,4.021739065647124689e-01,4.184782505035399280e-01,3.750000000000000000e-01,3.804347813129424494e-01,4.076086878776550293e-01,4.130434691905974787e-01,3.967391252517700195e-01,4.021739065647124689e-01,4.076086878776550293e-01,3.967391252517700195e-01,3.967391252517700195e-01,3.967391252517700195e-01,4.293478131294249378e-01,4.130434691905974787e-01,4.184782505035399280e-01,4.076086878776550293e-01,4.130434691905974787e-01,3.967391252517700195e-01,3.967391252517700195e-01,3.804347813129424494e-01,4.402174055576325018e-01,4.347825944423676092e-01,4.076086878776550293e-01,3.913043439388275146e-01,4.076086878776550293e-01,4.293478131294249378e-01,4.402174055576325018e-01,4.021739065647124689e-01,4.239130318164825439e-01,4.239130318164825439e-01,3.913043439388275146e-01,4.021739065647124689e-01,3.858695626258849543e-01,4.130434691905974787e-01,4.184782505035399280e-01,4.293478131294249378e-01,4.293478131294249378e-01,4.130434691905974787e-01,4.021739065647124689e-01,4.239130318164825439e-01,4.456521868705750067e-01,4.239130318164825439e-01,4.021739065647124689e-01,3.967391252517700195e-01,4.184782505035399280e-01,4.293478131294249378e-01,4.402174055576325018e-01,4.347825944423676092e-01,4.402174055576325018e-01,4.347825944423676092e-01,4.130434691905974787e-01,4.130434691905974787e-01,4.456521868705750067e-01,4.402174055576325018e-01,4.347825944423676092e-01,4.130434691905974787e-01,4.184782505035399280e-01,4.184782505035399280e-01,4.293478131294249378e-01,4.293478131294249378e-01,4.456521868705750067e-01,4.239130318164825439e-01,4.293478131294249378e-01,4.130434691905974787e-01,4.184782505035399280e-01,4.565217494964600164e-01,4.347825944423676092e-01,4.184782505035399280e-01,4.239130318164825439e-01,4.402174055576325018e-01,4.565217494964600164e-01,4.293478131294249378e-01,4.347825944423676092e-01,4.565217494964600164e-01,4.402174055576325018e-01,4.293478131294249378e-01,4.402174055576325018e-01,4.402174055576325018e-01,4.510869681835175116e-01,4.347825944423676092e-01,4.456521868705750067e-01,4.347825944423676092e-01,4.293478131294249378e-01,4.076086878776550293e-01,4.456521868705750067e-01,4.402174055576325018e-01,4.510869681835175116e-01,4.347825944423676092e-01,4.293478131294249378e-01,4.347825944423676092e-01,4.293478131294249378e-01,4.130434691905974787e-01,4.402174055576325018e-01,4.565217494964600164e-01,4.836956560611724854e-01,4.619565308094025213e-01,4.836956560611724854e-01,5.000000000000000000e-01,4.945652186870574951e-01,5.108695626258850098e-01,5.108695626258850098e-01,5.054348111152648926e-01,4.728260934352874201e-01,4.347825944423676092e-01,1.000000000000000000e+00
1.000000000000000000e+00,9.115044474601744495e-01,2.168141603469848910e-01,0.000000000000000000e+00,1.017699092626571516e-01,1.991150379180908203e-01,1.769911497831344882e-01,1.946902722120284757e-01,2.522123754024505615e-01,2.389380484819411954e-01,2.168141603469848910e-01,2.831858396530151367e-01,3.849557638168335516e-01,3.982300758361816406e-01,3.938052952289580744e-01,3.849557638168335516e-01,4.026548564434052069e-01,4.026548564434052069e-01,3.982300758361816406e-01,3.805309832096099854e-01,3.982300758361816406e-01,4.159291982650756836e-01,4.203539788722991943e-01,4.070796370506287731e-01,4.203539788722991943e-01,4.601770043373107910e-01,4.690265357494354248e-01,4.424778819084167480e-01,5.000000000000000000e-01,5.486725568771361194e-01,5.398229956626892090e-01,5.752212405204772949e-01,6.150442361831665039e-01,6.106194853782652698e-01,6.415929198265075684e-01,6.592920422554016113e-01,6.371681690216064453e-01,6.017699241638183594e-01,5.796459913253784180e-01,5.132743120193481445e-01,4.911504387855529785e-01,4.867256581783295233e-01,4.424778819084167480e-01,4.115044176578521729e-01,3.805309832096099854e-01,3.761062026023864746e-01,3.407079577445983887e-01,3.495575189590454102e-01,3.495575189590454102e-01,3.716814219951629639e-01,3.451327383518218994e-01,3.407079577445983887e-01,3.407079577445983887e-01,3.407079577445983887e-01,3.451327383518218994e-01,3.318583965301513672e-01,3.053097426891326349e-01,2.964601814746857245e-01,3.008849620819091797e-01,3.141593039035796564e-01,3.539822995662688654e-01,3.716814219951629639e-01,3.539822995662688654e-01,3.716814219951629639e-01,3.716814219951629639e-01,3.716814219951629639e-01,3.495575189590454102e-01,3.407079577445983887e-01,3.407079577445983887e-01,3.495575189590454102e-01,3.495575189590454102e-01,3.451327383518218994e-01,3.761062026023864746e-01,3.893805444240569513e-01,3.628318607807160534e-01,3.539822995662688654e-01,3.672566413879394531e-01,3.495575189590454102e-01,3.539822995662688654e-01,3.584070801734923761e-01,3.539822995662688654e-01,3.451327383518218994e-01,3.362831771373748224e-01,3.362831771373748224e-01,3.584070801734923761e-01,4.026548564434052069e-01,4.336283206939696711e-01,5.176991224288941540e-01,7.566371560096739612e-01,9.867256879806518555e-01,7.787610888481139026e-01,1.504424810409545898e-01,8.849557489156723022e-03,1.238938048481940946e-01,1.371681392192840299e-01,1.150442510843276700e-01,2.035398185253143866e-01,2.477876096963881891e-01,1.725663691759109497e-01,1.637168079614639282e-01,2.654867172241210938e-01,3.318583965301513672e-01,3.318583965301513672e-01,3.407079577445983887e-01,3.672566413879394531e-01,3.584070801734923761e-01,0.000000000000000000e+00,0.000000000000000000e+00,0.000000000000000000e+00,0.000000000000000000e+00,0.000000000000000000e+00,0.000000000000000000e+00,0.000000000000000000e+00,0.000000000000000000e+00,0.000000000000000000e+00,0.000000000000000000e+00,0.000000000000000000e+00,0.000000000000000000e+00,0.000000000000000000e+00,0.000000000000000000e+00,0.000000000000000000e+00,0.000000000000000000e+00,0.000000000000000000e+00,0.000000000000000000e+00,0.000000000000000000e+00,0.000000000000000000e+00,0.000000000000000000e+00,0.000000000000000000e+00,0.000000000000000000e+00,0.000000000000000000e+00,0.000000000000000000e+00,0.000000000000000000e+00,0.000000000000000000e+00,0.000000000000000000e+00,0.000000000000000000e+00,0.000000000000000000e+00,0.000000000000000000e+00,0.000000000000000000e+00,0.000000000000000000e+00,0.000000000000000000e+00,0.000000000000000000e+00,0.000000000000000000e+00,0.000000000000000000e+00,0.000000000000000000e+00,0.000000000000000000e+00,0.000000000000000000e+00,0.000000000000000000e+00,0.000000000000000000e+00,0.000000000000000000e+00,0.000000000000000000e+00,0.000000000000000000e+00,0.000000000000000000e+00,0.000000000000000000e+00,0.000000000000000000e+00,0.000000000000000000e+00,0.000000000000000000e+00,0.000000000000000000e+00,0.000000000000000000e+00,0.000000000000000000e+00,0.000000000000000000e+00,0.000000000000000000e+00,0.000000000000000000e+00,0.000000000000000000e+00,0.000000000000000000e+00,0.000000000000000000e+00,0.000000000000000000e+00,0.000000000000000000e+00,0.000000000000000000e+00,0.000000000000000000e+00,0.000000000000000000e+00,0.000000000000000000e+00,0.000000000000000000e+00,0.000000000000000000e+00,0.000000000000000000e+00,0.000000000000000000e+00,0.000000000000000000e+00,0.000000000000000000e+00,0.000000000000000000e+00,0.000000000000000000e+00,0.000000000000000000e+00,0.000000000000000000e+00,0.000000000000000000e+00,0.000000000000000000e+00,0.000000000000000000e+00,0.000000000000000000e+00,0.000000000000000000e+00,0.000000000000000000e+00,1.000000000000000000e+00
9.049773961305618286e-02,1.266968399286269864e-01,2.171945720911026001e-01,3.619909584522246759e-01,4.615384638309479870e-01,5.565611124038696289e-01,4.434389173984528143e-01,4.343891441822052002e-01,4.524886906147003174e-01,5.113122463226318359e-01,4.977375566959379993e-01,5.022624731063842773e-01,3.665158450603485107e-01,2.533936798572539728e-01,1.674208194017410278e-01,1.221719458699226518e-01,5.429864302277564309e-02,5.429864302277564309e-02,3.167420998215675354e-02,2.262443490326404572e-02,4.524887073785066605e-03,9.049774147570131475e-03,0.000000000000000000e+00,9.049774147570131475e-03,9.049774147570131475e-03,2.262443490326404572e-02,2.262443490326404572e-02,3.619909659028052590e-02,3.167420998215675354e-02,4.977375641465187767e-02,4.977375641465187767e-02,6.787330657243728638e-02,6.334841996431350708e-02,7.239819318056105180e-02,9.502262622117996216e-02,1.266968399286269864e-01,1.176470592617988725e-01,1.493212729692459384e-01,1.719457060098648071e-01,2.081447988748550415e-01,2.171945720911026001e-01,2.443438917398453036e-01,2.352941185235977450e-01,2.398190051317214411e-01,2.307692319154739935e-01,2.126696854829788208e-01,1.719457060098648071e-01,1.447963863611221036e-01,1.085972860455513000e-01,9.049773961305618286e-02,6.787330657243728638e-02,7.239819318056105180e-02,5.429864302277564309e-02,4.524886980652809143e-02,4.524886980652809143e-02,4.977375641465187767e-02,4.072398319840431213e-02,5.429864302277564309e-02,3.619909659028052590e-02,4.524886980652809143e-02,3.167420998215675354e-02,4.524886980652809143e-02,2.714932151138782154e-02,3.167420998215675354e-02,3.167420998215675354e-02,3.619909659028052590e-02,2.714932151138782154e-02,4.072398319840431213e-02,1.809954829514026295e-02,2.714932151138782154e-02,1.809954829514026295e-02,3.619909659028052590e-02,1.809954829514026295e-02,3.167420998215675354e-02,1.357466075569391077e-02,4.072398319840431213e-02,2.262443490326404572e-02,3.167420998215675354e-02,2.262443490326404572e-02,3.167420998215675354e-02,2.262443490326404572e-02,2.714932151138782154e-02,2.262443490326404572e-02,3.167420998215675354e-02,3.167420998215675354e-02,3.619909659028052590e-02,2.714932151138782154e-02,2.714932151138782154e-02,3.167420998215675354e-02,3.167420998215675354e-02,3.167420998215675354e-02,2.714932151138782154e-02,2.262443490326404572e-02,4.524886980652809143e-02,3.167420998215675354e-02,4.524886980652809143e-02,3.167420998215675354e-02,3.619909659028052590e-02,2.714932151138782154e-02,4.524886980652809143e-02,4.072398319840431213e-02,5.429864302277564309e-02,5.429864302277564309e-02,5.429864302277564309e-02,4.072398319840431213e-02,5.882352963089942238e-02,4.524886980652809143e-02,4.977375641465187767e-02,4.072398319840431213e-02,6.334841996431350708e-02,5.429864302277564309e-02,5.429864302277564309e-02,4.524886980652809143e-02,6.334841996431350708e-02,5.882352963089942238e-02,6.787330657243728638e-02,5.429864302277564309e-02,6.787330657243728638e-02,5.882352963089942238e-02,6.787330657243728638e-02,5.429864302277564309e-02,7.239819318056105180e-02,6.334841996431350708e-02,7.692307978868483109e-02,6.787330657243728638e-02,8.144796639680862427e-02,9.502262622117996216e-02,1.312217265367507935e-01,1.312217265367507935e-01,1.628959327936172485e-01,1.312217265367507935e-01,1.764705926179885864e-01,1.628959327936172485e-01,1.583710461854934692e-01,1.402714997529983798e-01,1.402714997529983798e-01,1.131221726536750932e-01,9.502262622117996216e-02,6.334841996431350708e-02,6.787330657243728638e-02,4.977375641465187767e-02,5.882352963089942238e-02,5.429864302277564309e-02,5.882352963089942238e-02,4.072398319840431213e-02,5.882352963089942238e-02,4.524886980652809143e-02,5.882352963089942238e-02,5.882352963089942238e-02,9.049773961305618286e-02,1.493212729692459384e-01,2.488687783479689997e-01,4.796380102634428821e-01,7.692307829856871448e-01,9.683257937431334339e-01,1.000000000000000000e+00,5.837104320526124157e-01,2.217194586992264072e-01,9.954751282930375533e-02,1.131221726536750932e-01,9.049773961305618286e-02,6.334841996431350708e-02,4.977375641465187767e-02,4.977375641465187767e-02,4.072398319840431213e-02,4.524886980652809143e-02,2.262443490326404572e-02,4.072398319840431213e-02,3.167420998215675354e-02,3.619909659028052590e-02,3.619909659028052590e-02,5.882352963089942238e-02,6.334841996431350708e-02,7.239819318056105180e-02,7.239819318056105180e-02,9.502262622117996216e-02,9.049773961305618286e-02,1.131221726536750932e-01,1.221719458699226518e-01,1.312217265367507935e-01,1.402714997529983798e-01,1.583710461854934692e-01,1.764705926179885864e-01,2.036199122667312622e-01,2.126696854829788208e-01,0.000000000000000000e+00,0.000000000000000000e+00,1.000000000000000000e+00
9.611111283302308239e-01,1.000000000000000000e+00,5.518518686294556774e-01,1.018518507480621060e-01,4.074073955416678688e-02,8.518518507480621338e-02,9.444444626569749313e-02,8.888889104127885299e-02,8.518518507480621338e-02,7.037036865949629350e-02,7.037036865949629350e-02,7.407407462596891923e-02,7.222222536802291870e-02,6.666667014360427856e-02,6.296296417713163895e-02,6.111111119389533997e-02,5.185185000300408797e-02,4.629629477858544090e-02,4.444444552063941956e-02,4.444444552063941956e-02,2.962962910532951355e-02,2.037036977708339691e-02,2.407407388091087688e-02,1.851851865649223675e-02,9.259259328246114903e-03,3.703703638166189194e-03,7.407407276332378387e-03,9.259259328246114903e-03,1.481481455266475677e-02,2.407407388091087688e-02,4.074073955416678688e-02,5.925925821065902710e-02,7.592592388391494751e-02,9.444444626569749313e-02,1.148148179054260254e-01,1.277777850627899170e-01,1.277777850627899170e-01,1.203703731298446516e-01,1.240740716457366805e-01,1.314814835786819180e-01,1.166666671633720814e-01,1.074074059724807600e-01,1.203703731298446516e-01,1.203703731298446516e-01,1.037037000060081621e-01,1.018518507480621060e-01,1.018518507480621060e-01,1.000000014901161471e-01,8.703703433275222778e-02,8.703703433275222778e-02,8.888889104127885299e-02,9.259258955717088180e-02,8.518518507480621338e-02,8.148147910833357377e-02,9.259258955717088180e-02,9.074074029922483964e-02,7.407407462596891923e-02,7.407407462596891923e-02,7.592592388391494751e-02,7.592592388391494751e-02,6.296296417713163895e-02,6.111111119389533997e-02,7.777778059244157272e-02,9.629629552364349365e-02,1.055555567145347595e-01,9.259258955717088180e-02,9.629629552364349365e-02,1.018518507480621060e-01,1.129629611968994002e-01,1.185185164213180542e-01,1.351851820945739469e-01,1.703703701496124268e-01,2.425925880670547485e-01,3.777777850627899170e-01,6.018518805503845215e-01,7.833333611488343395e-01,9.351851940155028187e-01,7.462962865829466663e-01,2.314814776182174128e-01,1.851851865649223675e-02,4.814814776182175377e-02,6.666667014360427856e-02,6.666667014360427856e-02,7.222222536802291870e-02,6.296296417713163895e-02,5.185185000300408797e-02,4.814814776182175377e-02,5.555555596947669983e-02,5.000000074505805969e-02,4.074073955416678688e-02,4.259259253740311363e-02,4.259259253740311363e-02,3.518518432974814675e-02,2.777777798473834991e-02,2.037036977708339691e-02,2.222222276031970978e-02,1.296296250075101679e-02,0.000000000000000000e+00,0.000000000000000000e+00,0.000000000000000000e+00,0.000000000000000000e+00,0.000000000000000000e+00,0.000000000000000000e+00,0.000000000000000000e+00,0.000000000000000000e+00,0.000000000000000000e+00,0.000000000000000000e+00,0.000000000000000000e+00,0.000000000000000000e+00,0.000000000000000000e+00,0.000000000000000000e+00,0.000000000000000000e+00,0.000000000000000000e+00,0.000000000000000000e+00,0.000000000000000000e+00,0.000000000000000000e+00,0.000000000000000000e+00,0.000000000000000000e+00,0.000000000000000000e+00,0.000000000000000000e+00,0.000000000000000000e+00,0.000000000000000000e+00,0.000000000000000000e+00,0.000000000000000000e+00,0.000000000000000000e+00,0.000000000000000000e+00,0.000000000000000000e+00,0.000000000000000000e+00,0.000000000000000000e+00,0.000000000000000000e+00,0.000000000000000000e+00,0.000000000000000000e+00,0.000000000000000000e+00,0.000000000000000000e+00,0.000000000000000000e+00,0.000000000000000000e+00,0.000000000000000000e+00,0.000000000000000000e+00,0.000000000000000000e+00,0.000000000000000000e+00,0.000000000000000000e+00,0.000000000000000000e+00,0.000000000000000000e+00,0.000000000000000000e+00,0.000000000000000000e+00,0.000000000000000000e+00,0.000000000000000000e+00,0.000000000000000000e+00,0.000000000000000000e+00,0.000000000000000000e+00,0.000000000000000000e+00,0.000000000000000000e+00,0.000000000000000000e+00,0.000000000000000000e+00,0.000000000000000000e+00,0.000000000000000000e+00,0.000000000000000000e+00,0.000000000000000000e+00,0.000000000000000000e+00,0.000000000000000000e+00,0.000000000000000000e+00,0.000000000000000000e+00,0.000000000000000000e+00,0.000000000000000000e+00,0.000000000000000000e+00,0.000000000000000000e+00,0.000000000000000000e+00,0.000000000000000000e+00,0.000000000000000000e+00,0.000000000000000000e+00,0.000000000000000000e+00,0.000000000000000000e+00,0.000000000000000000e+00,0.000000000000000000e+00,0.000000000000000000e+00,0.000000000000000000e+00,0.000000000000000000e+00,0.000000000000000000e+00,0.000000000000000000e+00,0.000000000000000000e+00,0.000000000000000000e+00,0.000000000000000000e+00,0.000000000000000000e+00,0.000000000000000000e+00,0.000000000000000000e+00,0.000000000000000000e+00,0.000000000000000000e+00,1.000000000000000000e+00
9.826839566230771705e-01,9.826839566230771705e-01,3.203463256359099787e-01,8.658008649945259094e-03,8.658009022474290328e-02,1.601731628179549893e-01,1.515151560306549072e-01,1.601731628179549893e-01,2.554112672805786133e-01,2.337662279605865479e-01,1.904761940240860263e-01,2.251082211732864380e-01,2.987012863159180243e-01,3.679653704166411798e-01,3.636363744735717773e-01,3.679653704166411798e-01,3.809523880481720526e-01,3.809523880481720526e-01,3.722943663597106378e-01,3.766233623027801514e-01,3.852813839912415661e-01,3.939394056797028143e-01,3.852813839912415661e-01,3.939394056797028143e-01,4.069263935089110773e-01,4.242424368858337402e-01,4.069263935089110773e-01,4.199134111404418390e-01,4.632034599781035822e-01,4.891774952411652166e-01,5.108225345611572266e-01,5.238095521926879883e-01,5.627705454826354980e-01,5.887445807456970215e-01,5.930736064910888672e-01,6.017315983772277832e-01,6.406926512718199573e-01,6.450216174125672497e-01,5.930736064910888672e-01,5.670995712280274548e-01,5.411255359649658203e-01,5.064935088157653809e-01,4.588744640350341797e-01,4.199134111404418390e-01,4.155844151973723810e-01,3.896103799343109131e-01,3.679653704166411798e-01,3.549783527851104736e-01,3.549783527851104736e-01,3.679653704166411798e-01,3.463203608989716131e-01,3.333333432674407404e-01,3.549783527851104736e-01,3.506493568420410156e-01,3.333333432674407404e-01,3.463203608989716131e-01,3.549783527851104736e-01,3.419913351535796564e-01,3.160173296928405762e-01,3.116883039474487305e-01,3.290043175220488947e-01,3.549783527851104736e-01,3.549783527851104736e-01,3.419913351535796564e-01,3.766233623027801514e-01,3.939394056797028143e-01,3.593073487281799316e-01,3.593073487281799316e-01,3.722943663597106378e-01,3.506493568420410156e-01,3.203463256359099787e-01,3.333333432674407404e-01,3.766233623027801514e-01,3.636363744735717773e-01,3.419913351535796564e-01,3.463203608989716131e-01,3.549783527851104736e-01,3.463203608989716131e-01,3.333333432674407404e-01,3.376623392105101984e-01,3.593073487281799316e-01,3.593073487281799316e-01,3.333333432674407404e-01,3.463203608989716131e-01,3.593073487281799316e-01,3.809523880481720526e-01,3.766233623027801514e-01,4.458874464035033625e-01,6.926407217979432263e-01,1.000000000000000000e+00,9.307359457015992321e-01,2.727272808551788330e-01,0.000000000000000000e+00,6.926406919956207275e-02,1.428571492433547974e-01,1.298701316118240356e-01,1.731601804494857511e-01,2.640692591667174738e-01,2.121212184429168701e-01,1.731601804494857511e-01,2.337662279605865479e-01,2.943722903728485107e-01,3.376623392105101984e-01,3.636363744735717773e-01,3.679653704166411798e-01,3.722943663597106378e-01,3.419913351535796564e-01,3.506493568420410156e-01,3.722943663597106378e-01,3.636363744735717773e-01,3.549783527851104736e-01,3.722943663597106378e-01,3.939394056797028143e-01,3.939394056797028143e-01,3.852813839912415661e-01,4.069263935089110773e-01,4.415584504604340155e-01,4.632034599781035822e-01,4.718614816665649969e-01,4.935064911842346191e-01,5.541125535964965820e-01,5.800865888595581055e-01,5.800865888595581055e-01,6.017315983772277832e-01,6.320346593856811523e-01,6.320346593856811523e-01,6.060606241226196289e-01,5.800865888595581055e-01,5.670995712280274548e-01,5.194805264472961426e-01,4.675324559211730957e-01,4.155844151973723810e-01,4.155844151973723810e-01,4.025973975658416748e-01,3.636363744735717773e-01,3.463203608989716131e-01,3.506493568420410156e-01,3.419913351535796564e-01,3.290043175220488947e-01,3.203463256359099787e-01,3.419913351535796564e-01,0.000000000000000000e+00,0.000000000000000000e+00,0.000000000000000000e+00,0.000000000000000000e+00,0.000000000000000000e+00,0.000000000000000000e+00,0.000000000000000000e+00,0.000000000000000000e+00,0.000000000000000000e+00,0.000000000000000000e+00,0.000000000000000000e+00,0.000000000000000000e+00,0.000000000000000000e+00,0.000000000000000000e+00,0.000000000000000000e+00,0.000000000000000000e+00,0.000000000000000000e+00,0.000000000000000000e+00,0.000000000000000000e+00,0.000000000000000000e+00,0.000000000000000000e+00,0.000000000000000000e+00,0.000000000000000000e+00,0.000000000000000000e+00,0.000000000000000000e+00,0.000000000000000000e+00,0.000000000000000000e+00,0.000000000000000000e+00,0.000000000000000000e+00,0.000000000000000000e+00,0.000000000000000000e+00,0.000000000000000000e+00,0.000000000000000000e+00,0.000000000000000000e+00,0.000000000000000000e+00,0.000000000000000000e+00,0.000000000000000000e+00,0.000000000000000000e+00,0.000000000000000000e+00,0.000000000000000000e+00,0.000000000000000000e+00,0.000000000000000000e+00,0.000000000000000000e+00,0.000000000000000000e+00,0.000000000000000000e+00,0.000000000000000000e+00,1.000000000000000000e+00
6.272401213645935059e-01,3.225806355476379395e-02,0.000000000000000000e+00,8.960573375225067139e-02,7.526881992816925049e-02,7.168459147214888139e-02,9.318996220827104049e-02,9.318996220827104049e-02,1.254480332136153897e-01,1.182795688509941240e-01,1.362007111310958585e-01,1.433691829442977628e-01,1.577060967683792114e-01,1.541218608617782593e-01,1.648745536804198941e-01,1.469534039497375211e-01,1.899641603231430054e-01,1.827957034111022672e-01,2.007168531417846402e-01,1.935483813285827637e-01,2.114695310592651367e-01,2.007168531417846402e-01,2.150537669658660889e-01,2.186379879713058472e-01,2.186379879713058472e-01,1.971326172351836881e-01,1.971326172351836881e-01,1.756272464990615845e-01,1.684587746858596802e-01,1.433691829442977628e-01,1.612903177738189420e-01,1.469534039497375211e-01,1.684587746858596802e-01,1.505376398563385010e-01,1.792114675045013428e-01,1.684587746858596802e-01,1.827957034111022672e-01,1.792114675045013428e-01,1.935483813285827637e-01,1.863799244165420532e-01,2.078853100538253507e-01,1.899641603231430054e-01,2.043010741472243708e-01,1.935483813285827637e-01,2.078853100538253507e-01,1.899641603231430054e-01,2.329749166965484619e-01,2.222222238779068271e-01,2.401433736085892001e-01,2.329749166965484619e-01,2.401433736085892001e-01,2.401433736085892001e-01,2.508960664272307794e-01,2.293906807899475098e-01,2.473118305206298551e-01,2.329749166965484619e-01,2.652329802513122003e-01,2.437275946140289029e-01,2.616487443447112482e-01,2.401433736085892001e-01,2.580645084381103516e-01,2.544802725315093439e-01,2.759856581687926691e-01,2.437275946140289029e-01,2.580645084381103516e-01,2.688172161579132080e-01,2.688172161579132080e-01,2.652329802513122003e-01,2.652329802513122003e-01,2.473118305206298551e-01,2.724014222621917169e-01,2.544802725315093439e-01,2.939068078994750421e-01,2.580645084381103516e-01,2.939068078994750421e-01,2.652329802513122003e-01,2.795698940753936768e-01,2.688172161579132080e-01,2.688172161579132080e-01,2.616487443447112482e-01,2.759856581687926691e-01,2.437275946140289029e-01,2.544802725315093439e-01,2.580645084381103516e-01,2.903225719928740900e-01,2.688172161579132080e-01,2.831541299819945734e-01,2.329749166965484619e-01,2.580645084381103516e-01,2.724014222621917169e-01,2.652329802513122003e-01,2.616487443447112482e-01,2.724014222621917169e-01,2.652329802513122003e-01,2.903225719928740900e-01,2.544802725315093439e-01,2.867383658885955255e-01,2.437275946140289029e-01,2.795698940753936768e-01,2.652329802513122003e-01,2.795698940753936768e-01,2.795698940753936768e-01,2.759856581687926691e-01,2.652329802513122003e-01,2.795698940753936768e-01,2.724014222621917169e-01,3.297491073608397882e-01,3.333333432674407404e-01,3.691756129264832098e-01,3.799283206462860107e-01,3.476702570915222168e-01,2.759856581687926691e-01,4.480286836624146063e-01,9.856630563735961914e-01,1.000000000000000000e+00,3.405017852783203125e-01,3.405017852783203125e-01,2.831541299819945734e-01,2.831541299819945734e-01,2.652329802513122003e-01,2.903225719928740900e-01,2.831541299819945734e-01,3.046594858169556219e-01,2.939068078994750421e-01,2.939068078994750421e-01,0.000000000000000000e+00,0.000000000000000000e+00,0.000000000000000000e+00,0.000000000000000000e+00,0.000000000000000000e+00,0.000000000000000000e+00,0.000000000000000000e+00,0.000000000000000000e+00,0.000000000000000000e+00,0.000000000000000000e+00,0.000000000000000000e+00,0.000000000000000000e+00,0.000000000000000000e+00,0.000000000000000000e+00,0.000000000000000000e+00,0.000000000000000000e+00,0.000000000000000000e+00,0.000000000000000000e+00,0.000000000000000000e+00,0.000000000000000000e+00,0.000000000000000000e+00,0.000000000000000000e+00,0.000000000000000000e+00,0.000000000000000000e+00,0.000000000000000000e+00,0.000000000000000000e+00,0.000000000000000000e+00,0.000000000000000000e+00,0.000000000000000000e+00,0.000000000000000000e+00,0.000000000000000000e+00,0.000000000000000000e+00,0.000000000000000000e+00,0.000000000000000000e+00,0.000000000000000000e+00,0.000000000000000000e+00,0.000000000000000000e+00,0.000000000000000000e+00,0.000000000000000000e+00,0.000000000000000000e+00,0.000000000000000000e+00,0.000000000000000000e+00,0.000000000000000000e+00,0.000000000000000000e+00,0.000000000000000000e+00,0.000000000000000000e+00,0.000000000000000000e+00,0.000000000000000000e+00,0.000000000000000000e+00,0.000000000000000000e+00,0.000000000000000000e+00,0.000000000000000000e+00,0.000000000000000000e+00,0.000000000000000000e+00,0.000000000000000000e+00,0.000000000000000000e+00,0.000000000000000000e+00,0.000000000000000000e+00,0.000000000000000000e+00,0.000000000000000000e+00,0.000000000000000000e+00,0.000000000000000000e+00,1.000000000000000000e+00
1.000000000000000000e+00,7.729730010032652698e-01,7.027027010917663574e-02,0.000000000000000000e+00,1.486486494541168213e-01,1.837837845087051392e-01,2.486486434936523993e-01,2.351351380348205011e-01,2.324324250221252441e-01,2.513513565063476007e-01,2.594594657421111505e-01,2.432432472705840509e-01,2.756756842136383612e-01,2.594594657421111505e-01,2.864864766597747803e-01,2.810810804367064875e-01,2.918919026851654053e-01,3.108108043670654297e-01,3.000000119209288996e-01,3.351351320743560791e-01,3.324324190616608221e-01,3.513513505458831787e-01,3.621621727943420965e-01,3.702702820301055908e-01,4.054054021835327704e-01,3.918918967247008722e-01,4.054054021835327704e-01,3.783783912658690851e-01,3.783783912658690851e-01,3.567567467689514160e-01,3.459459543228148859e-01,3.054054081439971924e-01,3.054054081439971924e-01,2.972972989082336426e-01,3.108108043670654297e-01,3.054054081439971924e-01,3.324324190616608221e-01,3.243243098258972168e-01,3.405405282974243164e-01,3.270270228385924738e-01,3.216216266155242920e-01,2.891891896724700928e-01,3.162162303924560547e-01,3.027026951313018799e-01,3.054054081439971924e-01,3.081081211566925049e-01,3.189189136028289240e-01,3.108108043670654297e-01,3.216216266155242920e-01,3.135135173797607422e-01,3.216216266155242920e-01,3.405405282974243164e-01,3.621621727943420965e-01,3.189189136028289240e-01,3.270270228385924738e-01,3.324324190616608221e-01,3.351351320743560791e-01,3.297297358512877863e-01,3.162162303924560547e-01,0.000000000000000000e+00,0.000000000000000000e+00,0.000000000000000000e+00,0.000000000000000000e+00,0.000000000000000000e+00,0.000000000000000000e+00,0.000000000000000000e+00,0.000000000000000000e+00,0.000000000000000000e+00,0.000000000000000000e+00,0.000000000000000000e+00,0.000000000000000000e+00,0.000000000000000000e+00,0.000000000000000000e+00,0.000000000000000000e+00,0.000000000000000000e+00,0.000000000000000000e+00,0.000000000000000000e+00,0.000000000000000000e+00,0.000000000000000000e+00,0.000000000000000000e+00,0.000000000000000000e+00,0.000000000000000000e+00,0.000000000000000000e+00,0.000000000000000000e+00,0.000000000000000000e+00,0.000000000000000000e+00,0.000000000000000000e+00,0.000000000000000000e+00,0.000000000000000000e+00,0.000000000000000000e+00,0.000000000000000000e+00,0.000000000000000000e+00,0.000000000000000000e+00,0.000000000000000000e+00,0.000000000000000000e+00,0.000000000000000000e+00,0.000000000000000000e+00,0.000000000000000000e+00,0.000000000000000000e+00,0.000000000000000000e+00,0.000000000000000000e+00,0.000000000000000000e+00,0.000000000000000000e+00,0.000000000000000000e+00,0.000000000000000000e+00,0.000000000000000000e+00,0.000000000000000000e+00,0.000000000000000000e+00,0.000000000000000000e+00,0.000000000000000000e+00,0.000000000000000000e+00,0.000000000000000000e+00,0.000000000000000000e+00,0.000000000000000000e+00,0.000000000000000000e+00,0.000000000000000000e+00,0.000000000000000000e+00,0.000000000000000000e+00,0.000000000000000000e+00,0.000000000000000000e+00,0.000000000000000000e+00,0.000000000000000000e+00,0.000000000000000000e+00,0.000000000000000000e+00,0.000000000000000000e+00,0.000000000000000000e+00,0.000000000000000000e+00,0.000000000000000000e+00,0.000000000000000000e+00,0.000000000000000000e+00,0.000000000000000000e+00,0.000000000000000000e+00,0.000000000000000000e+00,0.000000000000000000e+00,0.000000000000000000e+00,0.000000000000000000e+00,0.000000000000000000e+00,0.000000000000000000e+00,0.000000000000000000e+00,0.000000000000000000e+00,0.000000000000000000e+00,0.000000000000000000e+00,0.000000000000000000e+00,0.000000000000000000e+00,0.000000000000000000e+00,0.000000000000000000e+00,0.000000000000000000e+00,0.000000000000000000e+00,0.000000000000000000e+00,0.000000000000000000e+00,0.000000000000000000e+00,0.000000000000000000e+00,0.000000000000000000e+00,0.000000000000000000e+00,0.000000000000000000e+00,0.000000000000000000e+00,0.000000000000000000e+00,0.000000000000000000e+00,0.000000000000000000e+00,0.000000000000000000e+00,0.000000000000000000e+00,0.000000000000000000e+00,0.000000000000000000e+00,0.000000000000000000e+00,0.000000000000000000e+00,0.000000000000000000e+00,0.000000000000000000e+00,0.000000000000000000e+00,0.000000000000000000e+00,0.000000000000000000e+00,0.000000000000000000e+00,0.000000000000000000e+00,0.000000000000000000e+00,0.000000000000000000e+00,0.000000000000000000e+00,0.000000000000000000e+00,0.000000000000000000e+00,0.000000000000000000e+00,0.000000000000000000e+00,0.000000000000000000e+00,0.000000000000000000e+00,0.000000000000000000e+00,0.000000000000000000e+00,0.000000000000000000e+00,0.000000000000000000e+00,0.000000000000000000e+00,0.000000000000000000e+00,1.000000000000000000e+00
0.000000000000000000e+00,9.756097570061683655e-03,7.439024746417997880e-02,1.621951162815093994e-01,2.402438968420028964e-01,2.914634048938751776e-01,3.707317113876342773e-01,4.426829218864440918e-01,4.987804889678956188e-01,5.609756112098693848e-01,6.121951341629028320e-01,6.121951341629028320e-01,6.060975790023803711e-01,6.146341562271118164e-01,6.158536672592164196e-01,6.317073106765747070e-01,6.414633989334106445e-01,6.329268217086791992e-01,6.487804651260375977e-01,6.670731902122496448e-01,6.914634108543395996e-01,6.829268336296081543e-01,7.121950984001159668e-01,7.304878234863282360e-01,7.353658676147460938e-01,7.317073345184326172e-01,7.414634227752685547e-01,7.329268455505371094e-01,7.243902683258055530e-01,6.902438998222351074e-01,6.634146571159362793e-01,6.536585092544555664e-01,6.000000238418579102e-01,5.695121884346008301e-01,5.536585450172424316e-01,5.304877758026124157e-01,5.182926654815673828e-01,5.036585330963134766e-01,4.865853786468505859e-01,4.963414669036865234e-01,4.939024448394773725e-01,4.841463267803192139e-01,4.914634227752684992e-01,4.951219558715819757e-01,4.914634227752684992e-01,4.817073047161101740e-01,4.878048896789550781e-01,4.878048896789550781e-01,4.768292605876922052e-01,4.841463267803192139e-01,4.951219558715819757e-01,4.792682826519013006e-01,4.963414669036865234e-01,4.914634227752684992e-01,4.865853786468505859e-01,4.841463267803192139e-01,4.926829338073728803e-01,4.829268157482147217e-01,4.792682826519013006e-01,4.975609779357910156e-01,5.000000000000000000e-01,4.853658676147460938e-01,4.841463267803192139e-01,4.951219558715819757e-01,4.987804889678956188e-01,4.853658676147460938e-01,4.743902385234832764e-01,4.987804889678956188e-01,5.048780441284179688e-01,4.951219558715819757e-01,5.219511985778808594e-01,5.463414788246153675e-01,5.451219677925109863e-01,5.560975670814514160e-01,5.829268097877503552e-01,5.731707215309143066e-01,5.707316994667053223e-01,5.670731663703918457e-01,5.487805008888243519e-01,5.329268574714660645e-01,5.158536434173585095e-01,5.000000000000000000e-01,4.987804889678956188e-01,5.024390220642089844e-01,5.060975551605225720e-01,5.012195110321043812e-01,5.243902206420898438e-01,6.000000238418579102e-01,7.548780441284178577e-01,9.012194871902463600e-01,1.000000000000000000e+00,9.829268455505369984e-01,7.817073464393613502e-01,5.560975670814514160e-01,5.109755992889404297e-01,5.085365772247314453e-01,4.804877936840056818e-01,4.792682826519013006e-01,4.817073047161101740e-01,4.792682826519013006e-01,4.670731723308563232e-01,4.682926833629608154e-01,4.780487716197968084e-01,4.756097495555878241e-01,4.756097495555878241e-01,0.000000000000000000e+00,0.000000000000000000e+00,0.000000000000000000e+00,0.000000000000000000e+00,0.000000000000000000e+00,0.000000000000000000e+00,0.000000000000000000e+00,0.000000000000000000e+00,0.000000000000000000e+00,0.000000000000000000e+00,0.000000000000000000e+00,0.000000000000000000e+00,0.000000000000000000e+00,0.000000000000000000e+00,0.000000000000000000e+00,0.000000000000000000e+00,0.000000000000000000e+00,0.000000000000000000e+00,0.000000000000000000e+00,0.000000000000000000e+00,0.000000000000000000e+00,0.000000000000000000e+00,0.000000000000000000e+00,0.000000000000000000e+00,0.000000000000000000e+00,0.000000000000000000e+00,0.000000000000000000e+00,0.000000000000000000e+00,0.000000000000000000e+00,0.000000000000000000e+00,0.000000000000000000e+00,0.000000000000000000e+00,0.000000000000000000e+00,0.000000000000000000e+00,0.000000000000000000e+00,0.000000000000000000e+00,0.000000000000000000e+00,0.000000000000000000e+00,0.000000000000000000e+00,0.000000000000000000e+00,0.000000000000000000e+00,0.000000000000000000e+00,0.000000000000000000e+00,0.000000000000000000e+00,0.000000000000000000e+00,0.000000000000000000e+00,0.000000000000000000e+00,0.000000000000000000e+00,0.000000000000000000e+00,0.000000000000000000e+00,0.000000000000000000e+00,0.000000000000000000e+00,0.000000000000000000e+00,0.000000000000000000e+00,0.000000000000000000e+00,0.000000000000000000e+00,0.000000000000000000e+00,0.000000000000000000e+00,0.000000000000000000e+00,0.000000000000000000e+00,0.000000000000000000e+00,0.000000000000000000e+00,0.000000000000000000e+00,0.000000000000000000e+00,0.000000000000000000e+00,0.000000000000000000e+00,0.000000000000000000e+00,0.000000000000000000e+00,0.000000000000000000e+00,0.000000000000000000e+00,0.000000000000000000e+00,0.000000000000000000e+00,0.000000000000000000e+00,0.000000000000000000e+00,0.000000000000000000e+00,0.000000000000000000e+00,0.000000000000000000e+00,0.000000000000000000e+00,0.000000000000000000e+00,0.000000000000000000e+00,0.000000000000000000e+00,0.000000000000000000e+00,2.000000000000000000e+00
1.000000000000000000e+00,8.656716346740721546e-01,6.604477763175964355e-01,4.589552283287047785e-01,2.425373196601867953e-01,1.268656700849533081e-01,1.641791015863418302e-01,2.425373196601867953e-01,2.985074520111083984e-01,3.507462739944458008e-01,3.731343150138854980e-01,4.402984976768493652e-01,4.477612078189849298e-01,4.440298378467559259e-01,4.253731369972229004e-01,4.104477465152741034e-01,4.141791164875031073e-01,3.992537260055541992e-01,4.067164063453673761e-01,4.067164063453673761e-01,3.955223858356475830e-01,3.880597054958343506e-01,3.992537260055541992e-01,4.141791164875031073e-01,4.253731369972229004e-01,4.253731369972229004e-01,4.514925479888916016e-01,4.962686598300933838e-01,5.373134613037108265e-01,5.447761416435241699e-01,6.119403243064881481e-01,6.641790866851806641e-01,7.014925479888916016e-01,7.276119589805604138e-01,7.500000000000000000e-01,7.611940503120422363e-01,7.462686300277709961e-01,7.126865386962889515e-01,6.977611780166624866e-01,6.902984976768493652e-01,6.417910456657408558e-01,6.156716346740721546e-01,6.007462739944458008e-01,5.970149040222167969e-01,5.708954930305480957e-01,5.559701323509216309e-01,5.485074520111085095e-01,5.559701323509216309e-01,5.410447716712951660e-01,5.223880410194396973e-01,5.298507213592529297e-01,5.373134613037108265e-01,5.373134613037108265e-01,5.223880410194396973e-01,5.298507213592529297e-01,5.410447716712951660e-01,5.447761416435241699e-01,5.335820913314819336e-01,5.298507213592529297e-01,5.447761416435241699e-01,5.261194109916687012e-01,5.149253606796265759e-01,5.223880410194396973e-01,5.373134613037108265e-01,5.223880410194396973e-01,5.186567306518554688e-01,5.149253606796265759e-01,5.261194109916687012e-01,5.223880410194396973e-01,5.074626803398132324e-01,5.037313699722290039e-01,5.261194109916687012e-01,5.074626803398132324e-01,5.037313699722290039e-01,5.037313699722290039e-01,5.186567306518554688e-01,5.111940503120423474e-01,5.074626803398132324e-01,5.149253606796265759e-01,5.223880410194396973e-01,5.223880410194396973e-01,5.335820913314819336e-01,5.671641826629638672e-01,6.455224156379699707e-01,7.462686300277709961e-01,7.761194109916685901e-01,7.164179086685180664e-01,6.194030046463012695e-01,4.477612078189849298e-01,1.753731369972229004e-01,0.000000000000000000e+00,3.731343196704984579e-03,8.955223858356477218e-02,1.716417968273163119e-01,2.537313401699066162e-01,3.171641826629638672e-01,3.432835936546326239e-01,3.880597054958343506e-01,4.328358173370360773e-01,4.813432693481444757e-01,4.850746393203734241e-01,4.738805890083312988e-01,4.589552283287047785e-01,4.776119291782380261e-01,4.776119291782380261e-01,4.701492488384246826e-01,4.738805890083312988e-01,4.888059794902803179e-01,4.925373196601868231e-01,4.925373196601868231e-01,5.000000000000000000e-01,5.186567306518554688e-01,5.149253606796265759e-01,5.223880410194396973e-01,0.000000000000000000e+00,0.000000000000000000e+00,0.000000000000000000e+00,0.000000000000000000e+00,0.000000000000000000e+00,0.000000000000000000e+00,0.000000000000000000e+00,0.000000000000000000e+00,0.000000000000000000e+00,0.000000000000000000e+00,0.000000000000000000e+00,0.000000000000000000e+00,0.000000000000000000e+00,0.000000000000000000e+00,0.000000000000000000e+00,0.000000000000000000e+00,0.000000000000000000e+00,0.000000000000000000e+00,0.000000000000000000e+00,0.000000000000000000e+00,0.000000000000000000e+00,0.000000000000000000e+00,0.000000000000000000e+00,0.000000000000000000e+00,0.000000000000000000e+00,0.000000000000000000e+00,0.000000000000000000e+00,0.000000000000000000e+00,0.000000000000000000e+00,0.000000000000000000e+00,0.000000000000000000e+00,0.000000000000000000e+00,0.000000000000000000e+00,0.000000000000000000e+00,0.000000000000000000e+00,0.000000000000000000e+00,0.000000000000000000e+00,0.000000000000000000e+00,0.000000000000000000e+00,0.000000000000000000e+00,0.000000000000000000e+00,0.000000000000000000e+00,0.000000000000000000e+00,0.000000000000000000e+00,0.000000000000000000e+00,0.000000000000000000e+00,0.000000000000000000e+00,0.000000000000000000e+00,0.000000000000000000e+00,0.000000000000000000e+00,0.000000000000000000e+00,0.000000000000000000e+00,0.000000000000000000e+00,0.000000000000000000e+00,0.000000000000000000e+00,0.000000000000000000e+00,0.000000000000000000e+00,0.000000000000000000e+00,0.000000000000000000e+00,0.000000000000000000e+00,0.000000000000000000e+00,0.000000000000000000e+00,0.000000000000000000e+00,0.000000000000000000e+00,0.000000000000000000e+00,0.000000000000000000e+00,0.000000000000000000e+00,0.000000000000000000e+00,0.000000000000000000e+00,0.000000000000000000e+00,0.000000000000000000e+00,0.000000000000000000e+00,0.000000000000000000e+00,2.000000000000000000e+00
5.567282438278198242e-01,5.303429961204528809e-01,4.406332373619079590e-01,2.902374565601348877e-01,1.715039610862732211e-01,5.540896952152252197e-02,5.277045071125031385e-03,4.221636056900024414e-02,0.000000000000000000e+00,1.319261174648999994e-02,4.485488310456275940e-02,1.266490817070007324e-01,2.137203216552734375e-01,2.427440583705902100e-01,2.532981634140014648e-01,3.139841556549072266e-01,3.614775836467743475e-01,3.931398391723632257e-01,4.564643800258637030e-01,5.699208378791809082e-01,6.042216420173645020e-01,6.068601608276367188e-01,6.121371984481811523e-01,6.358839273452758789e-01,6.411609649658203125e-01,6.306068897247314453e-01,6.569920778274536133e-01,6.754617691040040173e-01,6.781002879142761230e-01,6.833773255348205566e-01,6.886543631553649902e-01,7.097625136375427246e-01,7.255936861038208008e-01,7.414247989654541016e-01,7.625330090522766113e-01,7.783641219139099121e-01,7.862796783447264515e-01,7.387862801551817737e-01,7.176781296730041504e-01,7.467018365859986462e-01,7.493403553962707520e-01,7.440633177757262073e-01,7.546173930168150745e-01,7.598944306373596191e-01,7.546173930168150745e-01,7.308707237243651234e-01,7.229551672935484730e-01,7.124010324478149414e-01,6.992084383964538574e-01,6.596305966377257191e-01,6.517150402069091797e-01,6.358839273452758789e-01,5.936675667762756348e-01,5.646438002586364746e-01,5.646438002586364746e-01,5.751978754997253418e-01,5.514512062072753906e-01,5.277044773101806641e-01,5.329815149307250977e-01,5.356200337409972034e-01,5.197889208793640137e-01,5.435356497764588513e-01,5.197889208793640137e-01,5.356200337409972034e-01,4.802110791206359863e-01,4.406332373619079590e-01,4.617414176464080811e-01,4.591028988361359198e-01,4.749340415000916082e-01,4.591028988361359198e-01,4.854881167411804199e-01,4.881266355514526922e-01,4.722955226898192804e-01,4.775725603103638250e-01,4.722955226898192804e-01,4.749340415000916082e-01,4.643799364566802979e-01,4.591028988361359198e-01,4.907651841640471857e-01,4.643799364566802979e-01,4.591028988361359198e-01,4.696570038795471191e-01,4.854881167411804199e-01,4.696570038795471191e-01,4.643799364566802979e-01,4.828495979309082031e-01,4.802110791206359863e-01,4.670184552669524036e-01,4.696570038795471191e-01,5.197889208793640137e-01,5.356200337409972034e-01,5.514512062072753906e-01,5.725593566894532360e-01,5.620052814483641468e-01,5.065963268280029297e-01,5.092348456382751465e-01,4.854881167411804199e-01,4.591028988361359198e-01,4.591028988361359198e-01,4.485488235950469971e-01,4.564643800258637030e-01,4.485488235950469971e-01,4.353561997413635254e-01,4.485488235950469971e-01,4.379947185516356867e-01,4.379947185516356867e-01,4.274406433105468750e-01,4.195250570774078369e-01,4.379947185516356867e-01,4.432717561721801758e-01,4.828495979309082031e-01,4.934037029743194025e-01,4.986807405948638916e-01,4.881266355514526922e-01,5.013192892074584961e-01,5.171504020690916859e-01,5.250659584999084473e-01,5.303429961204528809e-01,5.118733644485472523e-01,4.960422217845916748e-01,4.063324630260468084e-01,4.353561997413635254e-01,5.118733644485472523e-01,5.382585525512695312e-01,7.308707237243651234e-01,1.000000000000000000e+00,9.419525265693662330e-01,7.625330090522766113e-01,6.332454085350035511e-01,6.306068897247314453e-01,6.332454085350035511e-01,6.358839273452758789e-01,6.490765213966368519e-01,6.569920778274536133e-01,6.411609649658203125e-01,6.649076342582702637e-01,6.728231906890868030e-01,6.490765213966368519e-01,6.833773255348205566e-01,6.965699195861816406e-01,6.939314007759094238e-01,7.176781296730041504e-01,7.335092425346374512e-01,7.493403553962707520e-01,0.000000000000000000e+00,0.000000000000000000e+00,0.000000000000000000e+00,0.000000000000000000e+00,0.000000000000000000e+00,0.000000000000000000e+00,0.000000000000000000e+00,0.000000000000000000e+00,0.000000000000000000e+00,0.000000000000000000e+00,0.000000000000000000e+00,0.000000000000000000e+00,0.000000000000000000e+00,0.000000000000000000e+00,0.000000000000000000e+00,0.000000000000000000e+00,0.000000000000000000e+00,0.000000000000000000e+00,0.000000000000000000e+00,0.000000000000000000e+00,0.000000000000000000e+00,0.000000000000000000e+00,0.000000000000000000e+00,0.000000000000000000e+00,0.000000000000000000e+00,0.000000000000000000e+00,0.000000000000000000e+00,0.000000000000000000e+00,0.000000000000000000e+00,0.000000000000000000e+00,0.000000000000000000e+00,0.000000000000000000e+00,0.000000000000000000e+00,0.000000000000000000e+00,0.000000000000000000e+00,0.000000000000000000e+00,0.000000000000000000e+00,0.000000000000000000e+00,0.000000000000000000e+00,0.000000000000000000e+00,0.000000000000000000e+00,0.000000000000000000e+00,0.000000000000000000e+00,2.000000000000000000e+00
1.000000000000000000e+00,9.680306911468505859e-01,7.826086878776550293e-01,5.127876996994018555e-01,4.181585609912871759e-01,3.810741603374480646e-01,3.478260934352874756e-01,3.209718763828277033e-01,3.120204508304595947e-01,2.953964173793792725e-01,2.915601134300231378e-01,2.813299298286437988e-01,2.710997462272644043e-01,2.685422003269196112e-01,2.608695626258850098e-01,2.480818480253219882e-01,2.352941185235977450e-01,2.276214808225631991e-01,2.161125391721724909e-01,2.020460367202758789e-01,1.828644573688507358e-01,1.598465442657470703e-01,1.445012837648391724e-01,1.253196895122528076e-01,1.035805642604827881e-01,8.312020450830458207e-02,6.010230258107184670e-02,4.475703462958336570e-02,3.324808180332184532e-02,1.662404090166092266e-02,6.393861956894397736e-03,3.836317220702767372e-03,0.000000000000000000e+00,8.951406925916670018e-03,1.534526888281106949e-02,3.452685475349426963e-02,4.859334975481032631e-02,6.649616360664369064e-02,9.462915360927580399e-02,1.227621510624885559e-01,1.432225108146667480e-01,1.675191819667815885e-01,1.930946260690688809e-01,2.135549932718276700e-01,2.352941185235977450e-01,2.583120167255401611e-01,2.736572921276092529e-01,2.941176593303680420e-01,3.132992386817932129e-01,3.248081803321837824e-01,3.414322137832641602e-01,3.657289147377014715e-01,3.670076727867126465e-01,3.810741603374480646e-01,3.938618898391724188e-01,4.002557396888732910e-01,4.066496193408966620e-01,4.130434691905974787e-01,4.156010150909423828e-01,4.156010150909423828e-01,4.219948947429656982e-01,4.258311986923217773e-01,4.232736527919768732e-01,4.219948947429656982e-01,4.258311986923217773e-01,4.335038363933563232e-01,4.360613822937012274e-01,4.347825944423676092e-01,4.347825944423676092e-01,4.309462904930114746e-01,4.347825944423676092e-01,4.360613822937012274e-01,4.347825944423676092e-01,4.335038363933563232e-01,4.322250783443449818e-01,4.322250783443449818e-01,4.386189281940460205e-01,4.437340199947357178e-01,4.347825944423676092e-01,4.309462904930114746e-01,4.386189281940460205e-01,4.411764740943909247e-01,4.437340199947357178e-01,4.424552321434020996e-01,4.411764740943909247e-01,4.386189281940460205e-01,4.398976862430573065e-01,4.386189281940460205e-01,4.386189281940460205e-01,4.462915658950806219e-01,4.475703239440917969e-01,4.501278698444365900e-01,4.475703239440917969e-01,4.578005075454711914e-01,4.578005075454711914e-01,4.590792953968048096e-01,4.514066576957703192e-01,4.590792953968048096e-01,4.654731452465056818e-01,4.654731452465056818e-01,4.680306911468504749e-01,4.667519032955169123e-01,4.833759665489196777e-01,5.831202268600462757e-01,8.976982235908508301e-01,7.800511717796324573e-01,7.519181370735168457e-01,7.404091954231263317e-01,8.043478131294249378e-01,8.708440065383910023e-01,7.864450216293336071e-01,6.457800269126892090e-01,4.616368412971498247e-01,4.987212419509888250e-01,5.166240334510803223e-01,5.076726078987121582e-01,4.948849081993103027e-01,4.846547245979309082e-01,4.731457829475402277e-01,4.680306911468504749e-01,4.603580534458159845e-01,4.552429616451263983e-01,4.450127780437468927e-01,4.475703239440917969e-01,4.386189281940460205e-01,4.411764740943909247e-01,4.283887445926665705e-01,4.322250783443449818e-01,4.245524406433106024e-01,0.000000000000000000e+00,0.000000000000000000e+00,0.000000000000000000e+00,0.000000000000000000e+00,0.000000000000000000e+00,0.000000000000000000e+00,0.000000000000000000e+00,0.000000000000000000e+00,0.000000000000000000e+00,0.000000000000000000e+00,0.000000000000000000e+00,0.000000000000000000e+00,0.000000000000000000e+00,0.000000000000000000e+00,0.000000000000000000e+00,0.000000000000000000e+00,0.000000000000000000e+00,0.000000000000000000e+00,0.000000000000000000e+00,0.000000000000000000e+00,0.000000000000000000e+00,0.000000000000000000e+00,0.000000000000000000e+00,0.000000000000000000e+00,0.000000000000000000e+00,0.000000000000000000e+00,0.000000000000000000e+00,0.000000000000000000e+00,0.000000000000000000e+00,0.000000000000000000e+00,0.000000000000000000e+00,0.000000000000000000e+00,0.000000000000000000e+00,0.000000000000000000e+00,0.000000000000000000e+00,0.000000000000000000e+00,0.000000000000000000e+00,0.000000000000000000e+00,0.000000000000000000e+00,0.000000000000000000e+00,0.000000000000000000e+00,0.000000000000000000e+00,0.000000000000000000e+00,0.000000000000000000e+00,0.000000000000000000e+00,0.000000000000000000e+00,0.000000000000000000e+00,0.000000000000000000e+00,0.000000000000000000e+00,0.000000000000000000e+00,0.000000000000000000e+00,0.000000000000000000e+00,0.000000000000000000e+00,0.000000000000000000e+00,0.000000000000000000e+00,0.000000000000000000e+00,0.000000000000000000e+00,0.000000000000000000e+00,2.000000000000000000e+00
0.000000000000000000e+00,3.768115863204000993e-02,1.014492735266685486e-01,2.159420251846313199e-01,2.362318783998489102e-01,3.492753505706787109e-01,3.898550868034362238e-01,4.855072498321533203e-01,5.391304492950439453e-01,6.014492511749267578e-01,6.115942001342772327e-01,6.521739363670349121e-01,6.869565248489379883e-01,7.072463631629943848e-01,7.115942239761352539e-01,7.478260993957518421e-01,7.869565486907960095e-01,7.840579748153686523e-01,8.144927620887757458e-01,8.536232113838194691e-01,8.666666746139526367e-01,8.710144758224486194e-01,9.072463512420654297e-01,9.434782862663267933e-01,9.246376752853392444e-01,1.000000000000000000e+00,9.463768005371091530e-01,9.797101616859436035e-01,8.753623366355895996e-01,8.869565129280090332e-01,8.101449012756346546e-01,7.826086878776550293e-01,7.289854884147645153e-01,6.971014738082884632e-01,6.666666865348814808e-01,6.376811861991882324e-01,6.391304135322569691e-01,6.478260755538941540e-01,5.826086997985840954e-01,6.362318992614746094e-01,6.869565248489379883e-01,6.463767886161804199e-01,5.144927501678466797e-01,3.623188436031341553e-01,1.927536278963088712e-01,6.231883913278581100e-02,3.333333507180213928e-02,4.782608523964881897e-02,1.115942001342773438e-01,1.652173846960067471e-01,2.333333343267440518e-01,3.376811742782592773e-01,4.115942120552063543e-01,4.826087057590485174e-01,5.318840742111206055e-01,6.014492511749267578e-01,0.000000000000000000e+00,0.000000000000000000e+00,0.000000000000000000e+00,0.000000000000000000e+00,0.000000000000000000e+00,0.000000000000000000e+00,0.000000000000000000e+00,0.000000000000000000e+00,0.000000000000000000e+00,0.000000000000000000e+00,0.000000000000000000e+00,0.000000000000000000e+00,0.000000000000000000e+00,0.000000000000000000e+00,0.000000000000000000e+00,0.000000000000000000e+00,0.000000000000000000e+00,0.000000000000000000e+00,0.000000000000000000e+00,0.000000000000000000e+00,0.000000000000000000e+00,0.000000000000000000e+00,0.000000000000000000e+00,0.000000000000000000e+00,0.000000000000000000e+00,0.000000000000000000e+00,0.000000000000000000e+00,0.000000000000000000e+00,0.000000000000000000e+00,0.000000000000000000e+00,0.000000000000000000e+00,0.000000000000000000e+00,0.000000000000000000e+00,0.000000000000000000e+00,0.000000000000000000e+00,0.000000000000000000e+00,0.000000000000000000e+00,0.000000000000000000e+00,0.000000000000000000e+00,0.000000000000000000e+00,0.000000000000000000e+00,0.000000000000000000e+00,0.000000000000000000e+00,0.000000000000000000e+00,0.000000000000000000e+00,0.000000000000000000e+00,0.000000000000000000e+00,0.000000000000000000e+00,0.000000000000000000e+00,0.000000000000000000e+00,0.000000000000000000e+00,0.000000000000000000e+00,0.000000000000000000e+00,0.000000000000000000e+00,0.000000000000000000e+00,0.000000000000000000e+00,0.000000000000000000e+00,0.000000000000000000e+00,0.000000000000000000e+00,0.000000000000000000e+00,0.000000000000000000e+00,0.000000000000000000e+00,0.000000000000000000e+00,0.000000000000000000e+00,0.000000000000000000e+00,0.000000000000000000e+00,0.000000000000000000e+00,0.000000000000000000e+00,0.000000000000000000e+00,0.000000000000000000e+00,0.000000000000000000e+00,0.000000000000000000e+00,0.000000000000000000e+00,0.000000000000000000e+00,0.000000000000000000e+00,0.000000000000000000e+00,0.000000000000000000e+00,0.000000000000000000e+00,0.000000000000000000e+00,0.000000000000000000e+00,0.000000000000000000e+00,0.000000000000000000e+00,0.000000000000000000e+00,0.000000000000000000e+00,0.000000000000000000e+00,0.000000000000000000e+00,0.000000000000000000e+00,0.000000000000000000e+00,0.000000000000000000e+00,0.000000000000000000e+00,0.000000000000000000e+00,0.000000000000000000e+00,0.000000000000000000e+00,0.000000000000000000e+00,0.000000000000000000e+00,0.000000000000000000e+00,0.000000000000000000e+00,0.000000000000000000e+00,0.000000000000000000e+00,0.000000000000000000e+00,0.000000000000000000e+00,0.000000000000000000e+00,0.000000000000000000e+00,0.000000000000000000e+00,0.000000000000000000e+00,0.000000000000000000e+00,0.000000000000000000e+00,0.000000000000000000e+00,0.000000000000000000e+00,0.000000000000000000e+00,0.000000000000000000e+00,0.000000000000000000e+00,0.000000000000000000e+00,0.000000000000000000e+00,0.000000000000000000e+00,0.000000000000000000e+00,0.000000000000000000e+00,0.000000000000000000e+00,0.000000000000000000e+00,0.000000000000000000e+00,0.000000000000000000e+00,0.000000000000000000e+00,0.000000000000000000e+00,0.000000000000000000e+00,0.000000000000000000e+00,0.000000000000000000e+00,0.000000000000000000e+00,0.000000000000000000e+00,0.000000000000000000e+00,0.000000000000000000e+00,0.000000000000000000e+00,2.000000000000000000e+00
8.720378875732421875e-01,8.554502129554748535e-01,7.772511839866638184e-01,6.587677597999571644e-01,5.236966609954835095e-01,4.668246507644652765e-01,4.454976320266724188e-01,4.834123253822327215e-01,5.473933815956114612e-01,3.246445357799530029e-01,1.824644505977630615e-01,1.327014267444610596e-01,1.137440726161003252e-01,9.478673338890075684e-02,9.241706132888792558e-02,8.056872338056562943e-02,6.635071337223054366e-02,6.161137297749518654e-02,4.739336669445037148e-02,4.739336669445037148e-02,3.080568648874759327e-02,2.132701501250267029e-02,1.895734667778015484e-02,7.109004538506268588e-03,0.000000000000000000e+00,0.000000000000000000e+00,1.184834167361259287e-02,2.606634981930255890e-02,3.791469335556030967e-02,7.582938671112061935e-02,1.090047359466552734e-01,1.445497572422027588e-01,1.706161201000213623e-01,1.943127959966659546e-01,2.156398147344588678e-01,2.203791439533233365e-01,2.251184880733489435e-01,2.298578172922134399e-01,2.298578172922134399e-01,2.251184880733489435e-01,2.180094718933105191e-01,2.180094718933105191e-01,2.251184880733489435e-01,2.251184880733489435e-01,2.227488160133361539e-01,2.345971614122390470e-01,2.345971614122390470e-01,2.345971614122390470e-01,2.345971614122390470e-01,2.417061626911163608e-01,2.417061626911163608e-01,2.464454919099807462e-01,2.535544931888580322e-01,2.488151639699936468e-01,2.511848211288452148e-01,2.464454919099807462e-01,2.488151639699936468e-01,2.440758347511291504e-01,2.535544931888580322e-01,2.488151639699936468e-01,2.511848211288452148e-01,2.559241652488708496e-01,2.535544931888580322e-01,2.511848211288452148e-01,2.464454919099807462e-01,2.440758347511291504e-01,2.488151639699936468e-01,2.511848211288452148e-01,2.535544931888580322e-01,2.488151639699936468e-01,2.511848211288452148e-01,2.559241652488708496e-01,2.559241652488708496e-01,2.464454919099807462e-01,2.559241652488708496e-01,2.488151639699936468e-01,2.535544931888580322e-01,2.582938373088836670e-01,2.559241652488708496e-01,2.535544931888580322e-01,2.535544931888580322e-01,2.488151639699936468e-01,2.535544931888580322e-01,2.535544931888580322e-01,2.559241652488708496e-01,2.559241652488708496e-01,2.582938373088836670e-01,2.654028534889220636e-01,2.701421678066253662e-01,2.701421678066253662e-01,2.748815119266510010e-01,2.796208560466766357e-01,2.796208560466766357e-01,2.938388586044311523e-01,2.914691865444183350e-01,2.962085306644440252e-01,3.009478747844696600e-01,3.270142078399658203e-01,4.075829386711120605e-01,5.687204003334045410e-01,8.127962350845338024e-01,1.000000000000000000e+00,8.199052214622496448e-01,4.360189437866210382e-01,2.511848211288452148e-01,2.867298722267150324e-01,2.630331814289092462e-01,2.582938373088836670e-01,2.511848211288452148e-01,2.488151639699936468e-01,2.440758347511291504e-01,2.440758347511291504e-01,2.464454919099807462e-01,2.440758347511291504e-01,2.345971614122390470e-01,2.393364906311035434e-01,2.417061626911163608e-01,2.417061626911163608e-01,2.345971614122390470e-01,2.417061626911163608e-01,2.535544931888580322e-01,2.559241652488708496e-01,2.559241652488708496e-01,2.748815119266510010e-01,0.000000000000000000e+00,0.000000000000000000e+00,0.000000000000000000e+00,0.000000000000000000e+00,0.000000000000000000e+00,0.000000000000000000e+00,0.000000000000000000e+00,0.000000000000000000e+00,0.000000000000000000e+00,0.000000000000000000e+00,0.000000000000000000e+00,0.000000000000000000e+00,0.000000000000000000e+00,0.000000000000000000e+00,0.000000000000000000e+00,0.000000000000000000e+00,0.000000000000000000e+00,0.000000000000000000e+00,0.000000000000000000e+00,0.000000000000000000e+00,0.000000000000000000e+00,0.000000000000000000e+00,0.000000000000000000e+00,0.000000000000000000e+00,0.000000000000000000e+00,0.000000000000000000e+00,0.000000000000000000e+00,0.000000000000000000e+00,0.000000000000000000e+00,0.000000000000000000e+00,0.000000000000000000e+00,0.000000000000000000e+00,0.000000000000000000e+00,0.000000000000000000e+00,0.000000000000000000e+00,0.000000000000000000e+00,0.000000000000000000e+00,0.000000000000000000e+00,0.000000000000000000e+00,0.000000000000000000e+00,0.000000000000000000e+00,0.000000000000000000e+00,0.000000000000000000e+00,0.000000000000000000e+00,0.000000000000000000e+00,0.000000000000000000e+00,0.000000000000000000e+00,0.000000000000000000e+00,0.000000000000000000e+00,0.000000000000000000e+00,0.000000000000000000e+00,0.000000000000000000e+00,0.000000000000000000e+00,0.000000000000000000e+00,0.000000000000000000e+00,0.000000000000000000e+00,0.000000000000000000e+00,0.000000000000000000e+00,0.000000000000000000e+00,0.000000000000000000e+00,0.000000000000000000e+00,0.000000000000000000e+00,0.000000000000000000e+00,2.000000000000000000e+00
4.316546954214572906e-03,0.000000000000000000e+00,5.467626079916954041e-02,1.525179892778396606e-01,2.258992791175842563e-01,2.906474769115448553e-01,3.812949657440185547e-01,4.374100863933563232e-01,4.676258862018584095e-01,5.453237295150756836e-01,5.913668870925903320e-01,5.971223115921020508e-01,5.899280309677124023e-01,5.942445993423460804e-01,6.115108132362364612e-01,6.258992552757263184e-01,6.345323920249937855e-01,6.402877569198607288e-01,6.546762585639953613e-01,6.676259040832519531e-01,6.805755496025085449e-01,6.863309144973754883e-01,7.079136967658995472e-01,7.309352755546569824e-01,7.366906404495238148e-01,7.410072088241577148e-01,7.366906404495238148e-01,7.237409949302674450e-01,7.021582722663880505e-01,6.834532618522644043e-01,6.575539708137512207e-01,6.359712481498719372e-01,6.100719571113586426e-01,5.841726660728455700e-01,5.640287995338439941e-01,5.467625856399536133e-01,5.338129401206970215e-01,5.208632946014404297e-01,5.208632946014404297e-01,5.251798629760742188e-01,5.194244384765626110e-01,5.151079297065734863e-01,5.179855823516844593e-01,5.208632946014404297e-01,5.179855823516844593e-01,5.151079297065734863e-01,5.194244384765626110e-01,5.223021507263183594e-01,5.151079297065734863e-01,5.064747929573060192e-01,5.079136490821838379e-01,5.107913613319396973e-01,5.035971403121949352e-01,5.007194280624389648e-01,5.007194280624389648e-01,5.050359964370727539e-01,5.064747929573060192e-01,5.035971403121949352e-01,4.992805719375609796e-01,5.079136490821838379e-01,5.079136490821838379e-01,4.978417158126831055e-01,5.021582841873168945e-01,5.064747929573060192e-01,5.050359964370727539e-01,4.992805719375609796e-01,4.992805719375609796e-01,5.107913613319396973e-01,5.136690735816955566e-01,5.251798629760742188e-01,5.352517962455749512e-01,5.438848733901977539e-01,5.611510872840880237e-01,5.769784450531004749e-01,5.726618766784667969e-01,5.611510872840880237e-01,5.697841644287109375e-01,5.568345189094544567e-01,5.381295084953308105e-01,5.223021507263183594e-01,5.107913613319396973e-01,4.892086386680603027e-01,4.892086386680603027e-01,4.978417158126831055e-01,4.992805719375609796e-01,4.964028894901276745e-01,5.050359964370727539e-01,5.956834554672241211e-01,7.553957104682921253e-01,8.949640393257140003e-01,1.000000000000000000e+00,9.654676318168640137e-01,7.640287876129151501e-01,5.611510872840880237e-01,5.194244384765626110e-01,5.035971403121949352e-01,4.575539529323577881e-01,4.446043074131011963e-01,4.532374143600463867e-01,4.517985582351685125e-01,4.460431635379791260e-01,4.402877688407897394e-01,4.402877688407897394e-01,4.431654810905456543e-01,0.000000000000000000e+00,0.000000000000000000e+00,0.000000000000000000e+00,0.000000000000000000e+00,0.000000000000000000e+00,0.000000000000000000e+00,0.000000000000000000e+00,0.000000000000000000e+00,0.000000000000000000e+00,0.000000000000000000e+00,0.000000000000000000e+00,0.000000000000000000e+00,0.000000000000000000e+00,0.000000000000000000e+00,0.000000000000000000e+00,0.000000000000000000e+00,0.000000000000000000e+00,0.000000000000000000e+00,0.000000000000000000e+00,0.000000000000000000e+00,0.000000000000000000e+00,0.000000000000000000e+00,0.000000000000000000e+00,0.000000000000000000e+00,0.000000000000000000e+00,0.000000000000000000e+00,0.000000000000000000e+00,0.000000000000000000e+00,0.000000000000000000e+00,0.000000000000000000e+00,0.000000000000000000e+00,0.000000000000000000e+00,0.000000000000000000e+00,0.000000000000000000e+00,0.000000000000000000e+00,0.000000000000000000e+00,0.000000000000000000e+00,0.000000000000000000e+00,0.000000000000000000e+00,0.000000000000000000e+00,0.000000000000000000e+00,0.000000000000000000e+00,0.000000000000000000e+00,0.000000000000000000e+00,0.000000000000000000e+00,0.000000000000000000e+00,0.000000000000000000e+00,0.000000000000000000e+00,0.000000000000000000e+00,0.000000000000000000e+00,0.000000000000000000e+00,0.000000000000000000e+00,0.000000000000000000e+00,0.000000000000000000e+00,0.000000000000000000e+00,0.000000000000000000e+00,0.000000000000000000e+00,0.000000000000000000e+00,0.000000000000000000e+00,0.000000000000000000e+00,0.000000000000000000e+00,0.000000000000000000e+00,0.000000000000000000e+00,0.000000000000000000e+00,0.000000000000000000e+00,0.000000000000000000e+00,0.000000000000000000e+00,0.000000000000000000e+00,0.000000000000000000e+00,0.000000000000000000e+00,0.000000000000000000e+00,0.000000000000000000e+00,0.000000000000000000e+00,0.000000000000000000e+00,0.000000000000000000e+00,0.000000000000000000e+00,0.000000000000000000e+00,0.000000000000000000e+00,0.000000000000000000e+00,0.000000000000000000e+00,0.000000000000000000e+00,0.000000000000000000e+00,0.000000000000000000e+00,2.000000000000000000e+00
4.807692486792801943e-03,0.000000000000000000e+00,2.283653803169727672e-02,1.081730797886848311e-01,1.935096085071564276e-01,2.331730723381042480e-01,3.052884638309478760e-01,3.954326808452606756e-01,5.096153616905213513e-01,6.033653616905213513e-01,6.586538553237915039e-01,6.766827106475830078e-01,7.043269276618957520e-01,7.367788553237915039e-01,7.788461446762084961e-01,8.149038553237915039e-01,8.653846383094786487e-01,9.086538553237916149e-01,9.615384340286255993e-01,9.867788553237916149e-01,1.000000000000000000e+00,9.879807829856871448e-01,9.723557829856871448e-01,9.375000000000000000e-01,9.038461446762086071e-01,8.509615659713746227e-01,8.125000000000000000e-01,7.584134340286257103e-01,7.187500000000000000e-01,6.802884340286254883e-01,6.490384340286254883e-01,6.201922893524169922e-01,5.973557829856872559e-01,5.781250000000000000e-01,5.637019276618957520e-01,5.600961446762084961e-01,5.564903616905213513e-01,5.528846383094787598e-01,5.552884340286254883e-01,5.372596383094787598e-01,5.360577106475830078e-01,5.276442170143128552e-01,5.252403616905213513e-01,5.216346383094787598e-01,5.204327106475830078e-01,5.084134340286254883e-01,5.120192170143128552e-01,5.012019276618957520e-01,5.060096383094787598e-01,5.060096383094787598e-01,5.036057829856871448e-01,4.987980723381041925e-01,5.024038553237915039e-01,5.012019276618957520e-01,5.000000000000000000e-01,4.951923191547393244e-01,4.987980723381041925e-01,5.000000000000000000e-01,4.987980723381041925e-01,4.891826808452606756e-01,4.951923191547393244e-01,4.963942170143127997e-01,5.048077106475830078e-01,5.072115659713745117e-01,5.000000000000000000e-01,4.963942170143127997e-01,5.024038553237915039e-01,5.012019276618957520e-01,5.132211446762084961e-01,5.084134340286254883e-01,5.120192170143128552e-01,5.108172893524169922e-01,5.108172893524169922e-01,5.084134340286254883e-01,5.132211446762084961e-01,5.072115659713745117e-01,5.132211446762084961e-01,5.108172893524169922e-01,5.108172893524169922e-01,5.048077106475830078e-01,5.048077106475830078e-01,5.024038553237915039e-01,4.987980723381041925e-01,4.963942170143127997e-01,5.108172893524169922e-01,5.144230723381042480e-01,5.156250000000000000e-01,5.144230723381042480e-01,5.192307829856871448e-01,5.132211446762084961e-01,5.252403616905213513e-01,5.276442170143128552e-01,5.156250000000000000e-01,4.759615361690520130e-01,5.228365659713745117e-01,6.021634340286254883e-01,6.887019276618957520e-01,7.319711446762084961e-01,6.875000000000000000e-01,6.021634340286254883e-01,5.144230723381042480e-01,4.807692170143127997e-01,4.771634638309479870e-01,4.675480723381041925e-01,4.675480723381041925e-01,4.579326808452606756e-01,4.687500000000000000e-01,4.639423191547393244e-01,4.651442170143127997e-01,4.675480723381041925e-01,4.699519276618958075e-01,4.687500000000000000e-01,4.735576808452606756e-01,4.735576808452606756e-01,4.855769276618958075e-01,4.951923191547393244e-01,5.072115659713745117e-01,5.108172893524169922e-01,5.132211446762084961e-01,5.108172893524169922e-01,0.000000000000000000e+00,0.000000000000000000e+00,0.000000000000000000e+00,0.000000000000000000e+00,0.000000000000000000e+00,0.000000000000000000e+00,0.000000000000000000e+00,0.000000000000000000e+00,0.000000000000000000e+00,0.000000000000000000e+00,0.000000000000000000e+00,0.000000000000000000e+00,0.000000000000000000e+00,0.000000000000000000e+00,0.000000000000000000e+00,0.000000000000000000e+00,0.000000000000000000e+00,0.000000000000000000e+00,0.000000000000000000e+00,0.000000000000000000e+00,0.000000000000000000e+00,0.000000000000000000e+00,0.000000000000000000e+00,0.000000000000000000e+00,0.000000000000000000e+00,0.000000000000000000e+00,0.000000000000000000e+00,0.000000000000000000e+00,0.000000000000000000e+00,0.000000000000000000e+00,0.000000000000000000e+00,0.000000000000000000e+00,0.000000000000000000e+00,0.000000000000000000e+00,0.000000000000000000e+00,0.000000000000000000e+00,0.000000000000000000e+00,0.000000000000000000e+00,0.000000000000000000e+00,0.000000000000000000e+00,0.000000000000000000e+00,0.000000000000000000e+00,0.000000000000000000e+00,0.000000000000000000e+00,0.000000000000000000e+00,0.000000000000000000e+00,0.000000000000000000e+00,0.000000000000000000e+00,0.000000000000000000e+00,0.000000000000000000e+00,0.000000000000000000e+00,0.000000000000000000e+00,0.000000000000000000e+00,0.000000000000000000e+00,0.000000000000000000e+00,0.000000000000000000e+00,0.000000000000000000e+00,0.000000000000000000e+00,0.000000000000000000e+00,0.000000000000000000e+00,0.000000000000000000e+00,0.000000000000000000e+00,0.000000000000000000e+00,0.000000000000000000e+00,0.000000000000000000e+00,0.000000000000000000e+00,0.000000000000000000e+00,2.000000000000000000e+00
1.000000000000000000e+00,8.997493982315062366e-01,6.416040062904356800e-01,3.145363330841064453e-01,1.015037596225738387e-01,1.077694222331047058e-01,1.115288212895393233e-01,7.142857462167739868e-02,6.390977650880813599e-02,5.889724195003510215e-02,4.385964944958687523e-02,3.383458778262138367e-02,3.634085133671760559e-02,2.756892144680023193e-02,2.255639061331748615e-02,8.771929889917373657e-03,6.265664007514715195e-03,1.378446072340011770e-02,0.000000000000000000e+00,0.000000000000000000e+00,8.771929889917373657e-03,1.754385977983475078e-02,2.756892144680023193e-02,4.385964944958687523e-02,6.140350922942162254e-02,8.646616339683532715e-02,1.127819567918777466e-01,1.303258091211318692e-01,1.629072725772857388e-01,1.992481201887131015e-01,2.167919725179671964e-01,2.380952388048171997e-01,2.631579041481018066e-01,2.744360864162445068e-01,2.844611406326293390e-01,2.756892144680023193e-01,2.769423425197601318e-01,2.756892144680023193e-01,2.543859779834747314e-01,2.368421107530593872e-01,2.305764406919479370e-01,2.092731893062591830e-01,1.954887211322784146e-01,1.842105239629745206e-01,1.804511249065398892e-01,1.904761940240860263e-01,1.804511249065398892e-01,1.929824501276015958e-01,2.255639135837554932e-01,2.418546378612518588e-01,2.531328201293945312e-01,2.631579041481018066e-01,2.644110321998596191e-01,2.481203079223633090e-01,2.030075192451476773e-01,1.804511249065398892e-01,1.854636520147324164e-01,1.867167949676513394e-01,1.766917258501052856e-01,1.804511249065398892e-01,1.817042678594588678e-01,1.854636520147324164e-01,1.829573959112167636e-01,1.666666716337203702e-01,1.704260706901550015e-01,2.994987368583679754e-01,6.027569174766540527e-01,8.822054862976074219e-01,7.894737124443054199e-01,4.987468719482420765e-01,2.255639135837554932e-01,4.636591300368308327e-02,1.077694222331047058e-01,1.553884744644165039e-01,1.240601539611816545e-01,1.240601539611816545e-01,1.228070184588432312e-01,1.190476194024086276e-01,1.102756857872009277e-01,1.002506241202354431e-01,0.000000000000000000e+00,0.000000000000000000e+00,0.000000000000000000e+00,0.000000000000000000e+00,0.000000000000000000e+00,0.000000000000000000e+00,0.000000000000000000e+00,0.000000000000000000e+00,0.000000000000000000e+00,0.000000000000000000e+00,0.000000000000000000e+00,0.000000000000000000e+00,0.000000000000000000e+00,0.000000000000000000e+00,0.000000000000000000e+00,0.000000000000000000e+00,0.000000000000000000e+00,0.000000000000000000e+00,0.000000000000000000e+00,0.000000000000000000e+00,0.000000000000000000e+00,0.000000000000000000e+00,0.000000000000000000e+00,0.000000000000000000e+00,0.000000000000000000e+00,0.000000000000000000e+00,0.000000000000000000e+00,0.000000000000000000e+00,0.000000000000000000e+00,0.000000000000000000e+00,0.000000000000000000e+00,0.000000000000000000e+00,0.000000000000000000e+00,0.000000000000000000e+00,0.000000000000000000e+00,0.000000000000000000e+00,0.000000000000000000e+00,0.000000000000000000e+00,0.000000000000000000e+00,0.000000000000000000e+00,0.000000000000000000e+00,0.000000000000000000e+00,0.000000000000000000e+00,0.000000000000000000e+00,0.000000000000000000e+00,0.000000000000000000e+00,0.000000000000000000e+00,0.000000000000000000e+00,0.000000000000000000e+00,0.000000000000000000e+00,0.000000000000000000e+00,0.000000000000000000e+00,0.000000000000000000e+00,0.000000000000000000e+00,0.000000000000000000e+00,0.000000000000000000e+00,0.000000000000000000e+00,0.000000000000000000e+00,0.000000000000000000e+00,0.000000000000000000e+00,0.000000000000000000e+00,0.000000000000000000e+00,0.000000000000000000e+00,0.000000000000000000e+00,0.000000000000000000e+00,0.000000000000000000e+00,0.000000000000000000e+00,0.000000000000000000e+00,0.000000000000000000e+00,0.000000000000000000e+00,0.000000000000000000e+00,0.000000000000000000e+00,0.000000000000000000e+00,0.000000000000000000e+00,0.000000000000000000e+00,0.000000000000000000e+00,0.000000000000000000e+00,0.000000000000000000e+00,0.000000000000000000e+00,0.000000000000000000e+00,0.000000000000000000e+00,0.000000000000000000e+00,0.000000000000000000e+00,0.000000000000000000e+00,0.000000000000000000e+00,0.000000000000000000e+00,0.000000000000000000e+00,0.000000000000000000e+00,0.000000000000000000e+00,0.000000000000000000e+00,0.000000000000000000e+00,0.000000000000000000e+00,0.000000000000000000e+00,0.000000000000000000e+00,0.000000000000000000e+00,0.000000000000000000e+00,0.000000000000000000e+00,0.000000000000000000e+00,0.000000000000000000e+00,0.000000000000000000e+00,0.000000000000000000e+00,0.000000000000000000e+00,0.000000000000000000e+00,0.000000000000000000e+00,0.000000000000000000e+00,0.000000000000000000e+00,0.000000000000000000e+00,3.000000000000000000e+00
