9.227052927017214135e-01,7.270531654357911266e-01,1.304347813129425049e-01,0.000000000000000000e+00,1.183574870228767256e-01,1.859903335571289062e-01,1.835748851299285889e-01,1.884057968854903897e-01,1.884057968854903897e-01,1.811594218015670776e-01,1.908212602138519010e-01,1.908212602138519010e-01,2.077294737100600919e-01,2.004830986261368075e-01,2.101449221372604370e-01,2.149758487939834317e-01,2.149758487939834317e-01,2.246376872062683383e-01,2.415459007024765015e-01,2.415459007024765015e-01,2.681159377098082941e-01,2.874396145343780518e-01,3.115941882133483887e-01,3.164251148700714111e-01,3.454106152057648260e-01,3.236714899539947510e-01,3.502415418624877375e-01,3.454106152057648260e-01,3.429951667785643976e-01,3.236714899539947510e-01,3.115941882133483887e-01,2.922705411911010742e-01,2.753623127937316895e-01,2.560386359691619873e-01,2.463768124580383578e-01,2.367149740457534512e-01,2.391304373741149070e-01,2.367149740457534512e-01,2.463768124580383578e-01,2.342995107173919400e-01,2.439613491296767911e-01,2.463768124580383578e-01,2.487922757863998413e-01,2.415459007024765015e-01,2.512077391147612970e-01,2.487922757863998413e-01,2.584541141986846369e-01,2.560386359691619873e-01,2.681159377098082941e-01,2.608695626258850098e-01,2.753623127937316895e-01,2.777777910232544500e-01,3.115941882133483887e-01,3.067632913589476984e-01,3.091787397861481268e-01,3.067632913589476984e-01,3.091787397861481268e-01,3.067632913589476984e-01,3.091787397861481268e-01,2.922705411911010742e-01,3.043478131294249933e-01,3.019323647022247314e-01,3.091787397861481268e-01,2.874396145343780518e-01,2.874396145343780518e-01,2.801932394504547119e-01,2.874396145343780518e-01,2.850241661071777344e-01,2.971014380455017090e-01,2.971014380455017090e-01,2.898550629615783691e-01,2.753623127937316895e-01,3.816425204277039684e-01,6.714975833892823376e-01,1.000000000000000000e+00,7.318840622901916504e-01,1.304347813129425049e-01,1.280193179845809937e-01,2.560386359691619873e-01,2.898550629615783691e-01,3.140096664428710938e-01,3.140096664428710938e-01,3.140096664428710938e-01,3.115941882133483887e-01,3.260869681835174561e-01,3.236714899539947510e-01,3.333333432674407404e-01,3.381642401218413752e-01,3.502415418624877375e-01,0.000000000000000000e+00,0.000000000000000000e+00,0.000000000000000000e+00,0.000000000000000000e+00,0.000000000000000000e+00,0.000000000000000000e+00,0.000000000000000000e+00,0.000000000000000000e+00,0.000000000000000000e+00,0.000000000000000000e+00,0.000000000000000000e+00,0.000000000000000000e+00,0.000000000000000000e+00,0.000000000000000000e+00,0.000000000000000000e+00,0.000000000000000000e+00,0.000000000000000000e+00,0.000000000000000000e+00,0.000000000000000000e+00,0.000000000000000000e+00,0.000000000000000000e+00,0.000000000000000000e+00,0.000000000000000000e+00,0.000000000000000000e+00,0.000000000000000000e+00,0.000000000000000000e+00,0.000000000000000000e+00,0.000000000000000000e+00,0.000000000000000000e+00,0.000000000000000000e+00,0.000000000000000000e+00,0.000000000000000000e+00,0.000000000000000000e+00,0.000000000000000000e+00,0.000000000000000000e+00,0.000000000000000000e+00,0.000000000000000000e+00,0.000000000000000000e+00,0.000000000000000000e+00,0.000000000000000000e+00,0.000000000000000000e+00,0.000000000000000000e+00,0.000000000000000000e+00,0.000000000000000000e+00,0.000000000000000000e+00,0.000000000000000000e+00,0.000000000000000000e+00,0.000000000000000000e+00,0.000000000000000000e+00,0.000000000000000000e+00,0.000000000000000000e+00,0.000000000000000000e+00,0.000000000000000000e+00,0.000000000000000000e+00,0.000000000000000000e+00,0.000000000000000000e+00,0.000000000000000000e+00,0.000000000000000000e+00,0.000000000000000000e+00,0.000000000000000000e+00,0.000000000000000000e+00,0.000000000000000000e+00,0.000000000000000000e+00,0.000000000000000000e+00,0.000000000000000000e+00,0.000000000000000000e+00,0.000000000000000000e+00,0.000000000000000000e+00,0.000000000000000000e+00,0.000000000000000000e+00,0.000000000000000000e+00,0.000000000000000000e+00,0.000000000000000000e+00,0.000000000000000000e+00,0.000000000000000000e+00,0.000000000000000000e+00,0.000000000000000000e+00,0.000000000000000000e+00,0.000000000000000000e+00,0.000000000000000000e+00,0.000000000000000000e+00,0.000000000000000000e+00,0.000000000000000000e+00,0.000000000000000000e+00,0.000000000000000000e+00,0.000000000000000000e+00,0.000000000000000000e+00,0.000000000000000000e+00,0.000000000000000000e+00,0.000000000000000000e+00,0.000000000000000000e+00,0.000000000000000000e+00,0.000000000000000000e+00,0.000000000000000000e+00,0.000000000000000000e+00,0.000000000000000000e+00,0.000000000000000000e+00,0.000000000000000000e+00,0.000000000000000000e+00
7.500000000000000000e-01,1.000000000000000000e+00,7.333333492279052734e-01,5.000000074505805969e-02,1.133333370089530945e-01,1.700000017881393155e-01,1.733333319425582886e-01,1.533333361148834229e-01,1.800000071525573730e-01,1.700000017881393155e-01,1.899999976158142090e-01,1.633333265781402310e-01,1.733333319425582886e-01,1.733333319425582886e-01,1.766666620969772616e-01,1.666666716337203702e-01,1.833333373069763184e-01,1.666666716337203702e-01,1.766666620969772616e-01,1.733333319425582886e-01,1.833333373069763184e-01,1.733333319425582886e-01,1.966666728258132657e-01,1.800000071525573730e-01,2.133333384990691861e-01,2.166666686534881314e-01,2.466666698455810547e-01,2.566666603088378906e-01,2.933333218097686768e-01,3.033333420753479004e-01,3.366666734218596857e-01,3.766666650772095282e-01,4.066666662693024237e-01,3.933333456516265314e-01,4.033333361148833673e-01,3.799999952316284180e-01,3.566666543483734131e-01,3.166666626930236816e-01,2.800000011920928400e-01,2.633333206176757812e-01,2.599999904632568359e-01,2.500000000000000000e-01,2.466666698455810547e-01,2.466666698455810547e-01,2.566666603088378906e-01,2.433333396911620539e-01,2.633333206176757812e-01,2.566666603088378906e-01,2.666666805744171143e-01,2.366666644811630527e-01,2.433333396911620539e-01,2.266666740179061890e-01,2.399999946355819980e-01,2.333333343267440518e-01,2.466666698455810547e-01,2.466666698455810547e-01,2.399999946355819980e-01,2.366666644811630527e-01,2.533333301544188898e-01,2.466666698455810547e-01,2.433333396911620539e-01,2.366666644811630527e-01,2.433333396911620539e-01,2.466666698455810547e-01,2.366666644811630527e-01,2.366666644811630527e-01,2.599999904632568359e-01,2.466666698455810547e-01,2.599999904632568359e-01,2.333333343267440518e-01,2.399999946355819980e-01,2.333333343267440518e-01,2.733333408832550049e-01,2.800000011920928400e-01,2.899999916553496759e-01,2.266666740179061890e-01,2.266666740179061890e-01,2.833333313465117853e-01,2.666666805744171143e-01,1.733333319425582886e-01,2.233333289623260498e-01,2.433333396911620539e-01,2.566666603088378906e-01,2.166666686534881314e-01,2.433333396911620539e-01,2.300000041723251620e-01,2.166666686534881314e-01,2.333333343267440518e-01,2.399999946355819980e-01,2.033333331346512118e-01,2.333333343267440518e-01,2.099999934434891025e-01,2.433333396911620539e-01,2.199999988079071322e-01,2.333333343267440518e-01,2.399999946355819980e-01,2.599999904632568359e-01,2.433333396911620539e-01,2.566666603088378906e-01,2.533333301544188898e-01,2.666666805744171143e-01,2.466666698455810547e-01,2.300000041723251620e-01,2.300000041723251620e-01,2.333333343267440518e-01,2.199999988079071322e-01,2.500000000000000000e-01,2.333333343267440518e-01,2.166666686534881314e-01,2.166666686534881314e-01,2.166666686534881314e-01,1.866666674613952637e-01,2.033333331346512118e-01,2.066666632890700739e-01,1.966666728258132657e-01,1.899999976158142090e-01,1.933333277702331543e-01,2.066666632890700739e-01,2.166666686534881314e-01,2.266666740179061890e-01,2.766666710376738947e-01,3.700000047683715820e-01,4.133333265781402033e-01,5.333333611488342285e-01,5.899999737739561878e-01,7.699999809265136719e-01,8.633333444595338024e-01,3.233333230018616278e-01,0.000000000000000000e+00,5.666666850447654724e-02,1.500000059604644775e-01,1.666666716337203702e-01,1.700000017881393155e-01,1.800000071525573730e-01,1.800000071525573730e-01,1.800000071525573730e-01,2.033333331346512118e-01,1.899999976158142090e-01,1.966666728258132657e-01,1.899999976158142090e-01,1.933333277702331543e-01,1.733333319425582886e-01,1.966666728258132657e-01,1.899999976158142090e-01,1.866666674613952637e-01,1.866666674613952637e-01,1.766666620969772616e-01,1.800000071525573730e-01,1.700000017881393155e-01,1.766666620969772616e-01,0.000000000000000000e+00,0.000000000000000000e+00,0.000000000000000000e+00,0.000000000000000000e+00,0.000000000000000000e+00,0.000000000000000000e+00,0.000000000000000000e+00,0.000000000000000000e+00,0.000000000000000000e+00,0.000000000000000000e+00,0.000000000000000000e+00,0.000000000000000000e+00,0.000000000000000000e+00,0.000000000000000000e+00,0.000000000000000000e+00,0.000000000000000000e+00,0.000000000000000000e+00,0.000000000000000000e+00,0.000000000000000000e+00,0.000000000000000000e+00,0.000000000000000000e+00,0.000000000000000000e+00,0.000000000000000000e+00,0.000000000000000000e+00,0.000000000000000000e+00,0.000000000000000000e+00,0.000000000000000000e+00,0.000000000000000000e+00,0.000000000000000000e+00,0.000000000000000000e+00,0.000000000000000000e+00,0.000000000000000000e+00,0.000000000000000000e+00,0.000000000000000000e+00,0.000000000000000000e+00,0.000000000000000000e+00,0.000000000000000000e+00,0.000000000000000000e+00
8.879310488700864479e-01,7.011494040489196777e-01,3.821839094161986750e-01,1.264367848634719849e-01,4.885057359933852456e-02,2.586206980049609791e-02,8.045977354049681229e-02,8.908046036958694458e-02,1.091954037547111650e-01,8.333333581686017122e-02,4.885057359933852456e-02,6.321839243173599243e-02,8.620689809322355790e-02,8.333333581686017122e-02,6.609195470809937911e-02,2.011494338512421001e-02,0.000000000000000000e+00,5.172413960099219582e-02,6.034482643008231423e-02,1.091954037547111650e-01,1.034482792019844055e-01,5.459770187735558250e-02,6.609195470809937911e-02,5.172413960099219582e-02,7.758620381355285645e-02,3.448275849223136902e-02,5.172413960099219582e-02,5.459770187735558250e-02,5.172413960099219582e-02,3.735632076859473488e-02,4.885057359933852456e-02,7.471264153718946976e-02,7.758620381355285645e-02,5.747126415371894836e-02,7.758620381355285645e-02,7.758620381355285645e-02,1.091954037547111650e-01,1.178160905838012973e-01,1.551724076271057129e-01,1.494252830743789395e-01,1.666666716337203702e-01,1.637931019067764282e-01,2.672413885593414307e-01,2.356321811676025391e-01,2.212643623352051059e-01,2.212643623352051059e-01,2.327586263418197909e-01,2.241379320621490479e-01,2.471264302730560580e-01,2.155172377824783880e-01,2.385057508945465088e-01,2.126436829566955566e-01,2.500000000000000000e-01,2.413793057203293124e-01,1.982758641242980679e-01,1.724137961864471158e-01,2.672413885593414307e-01,2.643678188323974054e-01,2.471264302730560580e-01,2.270114868879318515e-01,2.586206793785095215e-01,2.557471394538879395e-01,2.528735697269440252e-01,2.356321811676025391e-01,2.586206793785095215e-01,2.471264302730560580e-01,2.586206793785095215e-01,1.896551698446273526e-01,2.327586263418197909e-01,2.212643623352051059e-01,1.954022943973540705e-01,1.695402264595031738e-01,1.637931019067764282e-01,2.758620679378509521e-01,2.931034564971923828e-01,2.614942491054534357e-01,3.362068831920623779e-01,2.787356376647949219e-01,2.729884982109069269e-01,2.758620679378509521e-01,3.045977056026458740e-01,2.385057508945465088e-01,2.643678188323974054e-01,2.155172377824783880e-01,2.241379320621490479e-01,1.408046036958694458e-01,2.298850566148757935e-01,2.701149284839630127e-01,2.931034564971923828e-01,2.988505661487579346e-01,2.270114868879318515e-01,2.327586263418197909e-01,1.580459773540496826e-01,2.988505661487579346e-01,2.270114868879318515e-01,3.103448152542114258e-01,4.885057508945466198e-01,5.977011322975158691e-01,7.959769964218138538e-01,1.000000000000000000e+00,7.931034564971922718e-01,5.114942789077758789e-01,8.160919547080992542e-01,1.752873510122299194e-01,2.844827473163604736e-01,2.413793057203293124e-01,2.586206793785095215e-01,2.068965584039688110e-01,2.356321811676025391e-01,2.327586263418197909e-01,2.442528754472733099e-01,1.896551698446273526e-01,1.954022943973540705e-01,1.781609207391738892e-01,1.695402264595031738e-01,1.321839094161987027e-01,1.896551698446273526e-01,1.839080452919006625e-01,1.695402264595031738e-01,0.000000000000000000e+00,0.000000000000000000e+00,0.000000000000000000e+00,0.000000000000000000e+00,0.000000000000000000e+00,0.000000000000000000e+00,0.000000000000000000e+00,0.000000000000000000e+00,0.000000000000000000e+00,0.000000000000000000e+00,0.000000000000000000e+00,0.000000000000000000e+00,0.000000000000000000e+00,0.000000000000000000e+00,0.000000000000000000e+00,0.000000000000000000e+00,0.000000000000000000e+00,0.000000000000000000e+00,0.000000000000000000e+00,0.000000000000000000e+00,0.000000000000000000e+00,0.000000000000000000e+00,0.000000000000000000e+00,0.000000000000000000e+00,0.000000000000000000e+00,0.000000000000000000e+00,0.000000000000000000e+00,0.000000000000000000e+00,0.000000000000000000e+00,0.000000000000000000e+00,0.000000000000000000e+00,0.000000000000000000e+00,0.000000000000000000e+00,0.000000000000000000e+00,0.000000000000000000e+00,0.000000000000000000e+00,0.000000000000000000e+00,0.000000000000000000e+00,0.000000000000000000e+00,0.000000000000000000e+00,0.000000000000000000e+00,0.000000000000000000e+00,0.000000000000000000e+00,0.000000000000000000e+00,0.000000000000000000e+00,0.000000000000000000e+00,0.000000000000000000e+00,0.000000000000000000e+00,0.000000000000000000e+00,0.000000000000000000e+00,0.000000000000000000e+00,0.000000000000000000e+00,0.000000000000000000e+00,0.000000000000000000e+00,0.000000000000000000e+00,0.000000000000000000e+00,0.000000000000000000e+00,0.000000000000000000e+00,0.000000000000000000e+00,0.000000000000000000e+00,0.000000000000000000e+00,0.000000000000000000e+00,0.000000000000000000e+00,0.000000000000000000e+00,0.000000000000000000e+00,0.000000000000000000e+00,0.000000000000000000e+00,0.000000000000000000e+00,0.000000000000000000e+00
1.000000000000000000e+00,8.705583810806273304e-01,4.289340078830719549e-01,1.421319842338562012e-01,6.852792203426359696e-02,1.065989881753921648e-01,6.091370433568953774e-02,5.329949408769607544e-02,2.284264005720615734e-02,3.045685216784476887e-02,1.015228405594825571e-02,2.030456811189651489e-02,2.538071013987064362e-03,2.538071013987064362e-02,7.614213041961192217e-03,2.284264005720615734e-02,0.000000000000000000e+00,2.030456811189651489e-02,5.076142027974128723e-03,3.299492225050926208e-02,2.284264005720615734e-02,3.045685216784476887e-02,3.045685216784476887e-02,5.583756417036057212e-02,4.568528011441231468e-02,7.106599211692810059e-02,6.345177441835403442e-02,7.614213228225709396e-02,6.598984450101852417e-02,7.868020236492158370e-02,6.345177441835403442e-02,7.106599211692810059e-02,5.583756417036057212e-02,5.837563425302504799e-02,3.807106614112854698e-02,4.060913622379302979e-02,2.284264005720615734e-02,3.553299605846405029e-02,2.030456811189651489e-02,2.538071013987064362e-02,2.284264005720615734e-02,3.553299605846405029e-02,1.776649802923202515e-02,3.299492225050926208e-02,3.045685216784476887e-02,4.314720630645752647e-02,3.807106614112854698e-02,6.345177441835403442e-02,6.091370433568953774e-02,6.598984450101852417e-02,5.837563425302504799e-02,7.106599211692810059e-02,4.822335019707679749e-02,6.091370433568953774e-02,4.568528011441231468e-02,5.076142027974128723e-02,4.060913622379302979e-02,4.822335019707679749e-02,2.538071013987064362e-02,4.568528011441231468e-02,2.030456811189651489e-02,4.314720630645752647e-02,2.284264005720615734e-02,5.583756417036057212e-02,3.553299605846405029e-02,4.822335019707679749e-02,3.045685216784476887e-02,4.822335019707679749e-02,3.807106614112854698e-02,6.091370433568953774e-02,4.314720630645752647e-02,4.314720630645752647e-02,3.807106614112854698e-02,4.568528011441231468e-02,3.299492225050926208e-02,4.314720630645752647e-02,2.791878208518028606e-02,3.807106614112854698e-02,2.538071013987064362e-02,2.791878208518028606e-02,2.284264005720615734e-02,3.807106614112854698e-02,2.791878208518028606e-02,4.822335019707679749e-02,3.299492225050926208e-02,5.583756417036057212e-02,3.807106614112854698e-02,5.837563425302504799e-02,5.076142027974128723e-02,5.583756417036057212e-02,3.807106614112854698e-02,5.329949408769607544e-02,5.329949408769607544e-02,7.868020236492158370e-02,5.329949408769607544e-02,7.614213228225709396e-02,5.583756417036057212e-02,6.345177441835403442e-02,5.076142027974128723e-02,6.345177441835403442e-02,5.583756417036057212e-02,7.106599211692810059e-02,5.076142027974128723e-02,7.106599211692810059e-02,8.629441261291505294e-02,1.472081243991851807e-01,2.614213228225708008e-01,4.898477196693420965e-01,7.233502268791198730e-01,9.314720630645754174e-01,8.629441857337950550e-01,4.873096346855164129e-01,1.573604047298431119e-01,7.868020236492158370e-02,8.629441261291505294e-02,5.837563425302504799e-02,2.538071013987064362e-02,3.299492225050926208e-02,1.015228405594825571e-02,1.269035506993532181e-02,0.000000000000000000e+00,2.030456811189651489e-02,5.076142027974128723e-03,2.538071013987064362e-02,1.015228405594825571e-02,2.030456811189651489e-02,2.538071013987064362e-03,2.284264005720615734e-02,1.015228405594825571e-02,1.015228405594825571e-02,1.269035506993532181e-02,0.000000000000000000e+00,0.000000000000000000e+00,0.000000000000000000e+00,0.000000000000000000e+00,0.000000000000000000e+00,0.000000000000000000e+00,0.000000000000000000e+00,0.000000000000000000e+00,0.000000000000000000e+00,0.000000000000000000e+00,0.000000000000000000e+00,0.000000000000000000e+00,0.000000000000000000e+00,0.000000000000000000e+00,0.000000000000000000e+00,0.000000000000000000e+00,0.000000000000000000e+00,0.000000000000000000e+00,0.000000000000000000e+00,0.000000000000000000e+00,0.000000000000000000e+00,0.000000000000000000e+00,0.000000000000000000e+00,0.000000000000000000e+00,0.000000000000000000e+00,0.000000000000000000e+00,0.000000000000000000e+00,0.000000000000000000e+00,0.000000000000000000e+00,0.000000000000000000e+00,0.000000000000000000e+00,0.000000000000000000e+00,0.000000000000000000e+00,0.000000000000000000e+00,0.000000000000000000e+00,0.000000000000000000e+00,0.000000000000000000e+00,0.000000000000000000e+00,0.000000000000000000e+00,0.000000000000000000e+00,0.000000000000000000e+00,0.000000000000000000e+00,0.000000000000000000e+00,0.000000000000000000e+00,0.000000000000000000e+00,0.000000000000000000e+00,0.000000000000000000e+00,0.000000000000000000e+00,0.000000000000000000e+00,0.000000000000000000e+00,0.000000000000000000e+00,0.000000000000000000e+00,0.000000000000000000e+00,0.000000000000000000e+00,0.000000000000000000e+00,0.000000000000000000e+00,0.000000000000000000e+00
0.000000000000000000e+00,1.988472640514373779e-01,3.314121067523955744e-01,4.697406291961669922e-01,5.446686148643493652e-01,5.244956612586975098e-01,5.273775458335876465e-01,5.561959743499756970e-01,5.648415088653564453e-01,5.619596838951109730e-01,5.590777993202209473e-01,5.821325778961180530e-01,5.763688683509826660e-01,5.850144028663635254e-01,5.850144028663635254e-01,6.109510064125061035e-01,6.138328313827514648e-01,6.167147159576416016e-01,6.167147159576416016e-01,6.340057849884033203e-01,6.599423885345457874e-01,6.512968540191649280e-01,6.657060384750367321e-01,6.945244669914244495e-01,7.146974205970764160e-01,7.377521395683287464e-01,7.608069181442258522e-01,8.069164156913756214e-01,8.501440882682801403e-01,8.703169822692869984e-01,8.904899358749388538e-01,9.221901893615720436e-01,9.394812583923339844e-01,9.365994334220886230e-01,9.193083643913267933e-01,8.962535858154297985e-01,8.645533323287963867e-01,8.011527657508850098e-01,7.377521395683287464e-01,6.945244669914244495e-01,6.512968540191649280e-01,6.167147159576416016e-01,5.821325778961180530e-01,5.763688683509826660e-01,5.878962278366088867e-01,5.677233338356018066e-01,5.533141493797302246e-01,5.648415088653564453e-01,5.619596838951109730e-01,5.590777993202209473e-01,5.504322648048400879e-01,5.533141493797302246e-01,5.677233338356018066e-01,5.590777993202209473e-01,5.561959743499756970e-01,5.677233338356018066e-01,5.677233338356018066e-01,5.648415088653564453e-01,5.504322648048400879e-01,5.475504398345947266e-01,5.590777993202209473e-01,5.533141493797302246e-01,5.302593708038330078e-01,5.360230803489683948e-01,5.389049053192138672e-01,5.331411957740782581e-01,5.043227672576903187e-01,5.187320113182067871e-01,5.244956612586975098e-01,5.129683017730711780e-01,5.129683017730711780e-01,5.158501267433166504e-01,5.273775458335876465e-01,5.187320113182067871e-01,5.014409422874450684e-01,5.158501267433166504e-01,5.187320113182067871e-01,5.129683017730711780e-01,5.014409422874450684e-01,5.129683017730711780e-01,5.043227672576903187e-01,5.129683017730711780e-01,5.129683017730711780e-01,5.100864768028259277e-01,5.100864768028259277e-01,4.985590875148773193e-01,4.812680184841156006e-01,5.043227672576903187e-01,5.100864768028259277e-01,5.072045922279356800e-01,5.072045922279356800e-01,5.072045922279356800e-01,5.216138362884521484e-01,5.043227672576903187e-01,4.956772327423096813e-01,5.100864768028259277e-01,5.129683017730711780e-01,5.043227672576903187e-01,5.014409422874450684e-01,4.985590875148773193e-01,5.244956612586975098e-01,5.100864768028259277e-01,5.014409422874450684e-01,5.100864768028259277e-01,5.158501267433166504e-01,5.158501267433166504e-01,5.043227672576903187e-01,5.129683017730711780e-01,5.244956612586975098e-01,5.273775458335876465e-01,5.216138362884521484e-01,5.619596838951109730e-01,5.821325778961180530e-01,5.792506933212280273e-01,5.965417623519897461e-01,6.138328313827514648e-01,6.138328313827514648e-01,5.821325778961180530e-01,5.706051588058471680e-01,5.590777993202209473e-01,5.360230803489683948e-01,5.158501267433166504e-01,5.014409422874450684e-01,5.100864768028259277e-01,5.014409422874450684e-01,4.899135529994965155e-01,4.755043089389802136e-01,4.927953779697417103e-01,4.985590875148773193e-01,4.956772327423096813e-01,4.899135529994965155e-01,5.187320113182067871e-01,6.311239004135131836e-01,8.414985537528990589e-01,1.000000000000000000e+00,7.723342776298522949e-01,3.458213210105895441e-01,5.475504323840141296e-02,1.729106605052947720e-01,3.659942448139191229e-01,4.755043089389802136e-01,5.331411957740782581e-01,5.129683017730711780e-01,5.360230803489683948e-01,5.590777993202209473e-01,5.590777993202209473e-01,5.475504398345947266e-01,5.619596838951109730e-01,5.850144028663635254e-01,5.792506933212280273e-01,5.706051588058471680e-01,5.907781124114990234e-01,6.080691814422607422e-01,6.023054718971252441e-01,5.994236469268798828e-01,6.109510064125061035e-01,6.282420754432678223e-01,6.224783658981324352e-01,6.253602504730224609e-01,6.570605039596557617e-01,6.887608170509338379e-01,6.887608170509338379e-01,7.002881765365600586e-01,7.319884896278381348e-01,7.752161622047424316e-01,0.000000000000000000e+00,0.000000000000000000e+00,0.000000000000000000e+00,0.000000000000000000e+00,0.000000000000000000e+00,0.000000000000000000e+00,0.000000000000000000e+00,0.000000000000000000e+00,0.000000000000000000e+00,0.000000000000000000e+00,0.000000000000000000e+00,0.000000000000000000e+00,0.000000000000000000e+00,0.000000000000000000e+00,0.000000000000000000e+00,0.000000000000000000e+00,0.000000000000000000e+00,0.000000000000000000e+00,0.000000000000000000e+00,0.000000000000000000e+00,0.000000000000000000e+00,0.000000000000000000e+00,0.000000000000000000e+00
1.000000000000000000e+00,8.932384252548217773e-01,6.192170977592468262e-01,2.313167303800582608e-01,1.209964379668235501e-01,6.405694037675857544e-02,4.982206225395201943e-02,3.558718785643576882e-02,2.491103112697600971e-02,2.491103112697600971e-02,2.135231345891952515e-02,2.135231345891952515e-02,2.135231345891952515e-02,2.846975065767765045e-02,3.202847018837928772e-02,2.846975065767765045e-02,2.846975065767765045e-02,7.117437664419412613e-03,0.000000000000000000e+00,7.117437664419412613e-03,7.117437664419412613e-03,2.135231345891952515e-02,1.067615672945976257e-02,1.423487532883882523e-02,1.779359392821788788e-02,1.423487532883882523e-02,2.846975065767765045e-02,2.846975065767765045e-02,2.491103112697600971e-02,5.338078364729880593e-02,3.914590924978255532e-02,8.185053616762162643e-02,8.896797150373458862e-02,1.209964379668235501e-01,1.138790026307106018e-01,1.423487514257431030e-01,1.387900412082672119e-01,1.352313160896300992e-01,1.281138807535171509e-01,1.316725909709930420e-01,1.281138807535171509e-01,1.316725909709930420e-01,1.281138807535171509e-01,1.281138807535171509e-01,1.209964379668235501e-01,1.281138807535171509e-01,1.174377202987670760e-01,1.352313160896300992e-01,1.387900412082672119e-01,1.423487514257431030e-01,1.316725909709930420e-01,1.459074765443801880e-01,1.565836369991302490e-01,1.494661867618560791e-01,1.601423472166061401e-01,1.672597825527190885e-01,1.565836369991302490e-01,1.423487514257431030e-01,1.494661867618560791e-01,1.423487514257431030e-01,1.530249118804931363e-01,1.423487514257431030e-01,1.387900412082672119e-01,1.281138807535171509e-01,1.316725909709930420e-01,1.209964379668235501e-01,1.423487514257431030e-01,1.494661867618560791e-01,1.423487514257431030e-01,1.316725909709930420e-01,1.459074765443801880e-01,1.494661867618560791e-01,1.459074765443801880e-01,1.565836369991302490e-01,1.387900412082672119e-01,1.459074765443801880e-01,1.423487514257431030e-01,1.387900412082672119e-01,1.352313160896300992e-01,1.281138807535171509e-01,1.209964379668235501e-01,1.316725909709930420e-01,1.281138807535171509e-01,1.316725909709930420e-01,1.387900412082672119e-01,1.459074765443801880e-01,1.352313160896300992e-01,1.530249118804931363e-01,1.565836369991302490e-01,1.637010723352432251e-01,1.743772178888320645e-01,1.921708136796951016e-01,1.850533783435820978e-01,1.743772178888320645e-01,2.740213572978972834e-01,5.338078141212463379e-01,7.900356054306030273e-01,9.572953581809996448e-01,8.434163928031922497e-01,4.946619272232056774e-01,1.921708136796951016e-01,1.103202849626541138e-01,9.964412450790402498e-02,7.829181849956511063e-02,5.693950131535530090e-02,4.982206225395201943e-02,6.405694037675857544e-02,6.049821898341180282e-02,5.693950131535530090e-02,3.914590924978255532e-02,3.914590924978255532e-02,2.846975065767765045e-02,2.491103112697600971e-02,0.000000000000000000e+00,0.000000000000000000e+00,0.000000000000000000e+00,0.000000000000000000e+00,0.000000000000000000e+00,0.000000000000000000e+00,0.000000000000000000e+00,0.000000000000000000e+00,0.000000000000000000e+00,0.000000000000000000e+00,0.000000000000000000e+00,0.000000000000000000e+00,0.000000000000000000e+00,0.000000000000000000e+00,0.000000000000000000e+00,0.000000000000000000e+00,0.000000000000000000e+00,0.000000000000000000e+00,0.000000000000000000e+00,0.000000000000000000e+00,0.000000000000000000e+00,0.000000000000000000e+00,0.000000000000000000e+00,0.000000000000000000e+00,0.000000000000000000e+00,0.000000000000000000e+00,0.000000000000000000e+00,0.000000000000000000e+00,0.000000000000000000e+00,0.000000000000000000e+00,0.000000000000000000e+00,0.000000000000000000e+00,0.000000000000000000e+00,0.000000000000000000e+00,0.000000000000000000e+00,0.000000000000000000e+00,0.000000000000000000e+00,0.000000000000000000e+00,0.000000000000000000e+00,0.000000000000000000e+00,0.000000000000000000e+00,0.000000000000000000e+00,0.000000000000000000e+00,0.000000000000000000e+00,0.000000000000000000e+00,0.000000000000000000e+00,0.000000000000000000e+00,0.000000000000000000e+00,0.000000000000000000e+00,0.000000000000000000e+00,0.000000000000000000e+00,0.000000000000000000e+00,0.000000000000000000e+00,0.000000000000000000e+00,0.000000000000000000e+00,0.000000000000000000e+00,0.000000000000000000e+00,0.000000000000000000e+00,0.000000000000000000e+00,0.000000000000000000e+00,0.000000000000000000e+00,0.000000000000000000e+00,0.000000000000000000e+00,0.000000000000000000e+00,0.000000000000000000e+00,0.000000000000000000e+00,0.000000000000000000e+00,0.000000000000000000e+00,0.000000000000000000e+00,0.000000000000000000e+00,0.000000000000000000e+00,0.000000000000000000e+00,0.000000000000000000e+00,0.000000000000000000e+00,0.000000000000000000e+00
1.000000000000000000e+00,8.963963985443116345e-01,6.666666865348814808e-01,4.414414465427399237e-01,2.612612545490264893e-01,1.486486494541168213e-01,1.396396458148956576e-01,1.666666716337203702e-01,1.531531512737273892e-01,1.486486494541168213e-01,1.621621549129486084e-01,1.936936974525452215e-01,1.846846789121628363e-01,1.666666716337203702e-01,1.756756752729415616e-01,1.936936974525452215e-01,1.936936974525452215e-01,1.756756752729415616e-01,1.936936974525452215e-01,2.252252250909805020e-01,2.162162214517593384e-01,1.981981992721557617e-01,2.252252250909805020e-01,2.297297269105910977e-01,2.432432472705840509e-01,2.297297269105910977e-01,2.387387454509735107e-01,2.567567527294158380e-01,2.567567527294158380e-01,2.567567527294158380e-01,2.747747600078582764e-01,2.747747600078582764e-01,2.657657563686370850e-01,2.477477490901947577e-01,2.477477490901947577e-01,2.567567527294158380e-01,2.162162214517593384e-01,1.846846789121628363e-01,1.801801770925521573e-01,1.666666716337203702e-01,1.396396458148956576e-01,1.171171143651008467e-01,1.036036014556884766e-01,1.261261254549026489e-01,1.081081107258796692e-01,9.009008854627609253e-02,9.009008854627609253e-02,1.036036014556884766e-01,9.459459781646727128e-02,6.756756454706190629e-02,6.756756454706190629e-02,8.558558672666548295e-02,4.954954981803894737e-02,4.504504427313805320e-02,5.405405536293984153e-02,5.405405536293984153e-02,4.054053872823715904e-02,1.351351384073495865e-02,2.252252213656902660e-02,3.603603690862656334e-02,3.153153136372566223e-02,9.009009227156640834e-03,1.801801845431328167e-02,4.504504427313805320e-02,1.351351384073495865e-02,0.000000000000000000e+00,1.801801845431328167e-02,4.504504427313805320e-02,2.702702768146992077e-02,3.153153136372566223e-02,3.603603690862656334e-02,5.405405536293984153e-02,4.504504427313805320e-02,3.153153136372566223e-02,4.054053872823715904e-02,5.405405536293984153e-02,4.954954981803894737e-02,2.252252213656902660e-02,4.054053872823715904e-02,6.756756454706190629e-02,4.954954981803894737e-02,4.054053872823715904e-02,4.954954981803894737e-02,5.405405536293984153e-02,4.504504427313805320e-02,4.054053872823715904e-02,4.054053872823715904e-02,6.306306272745132446e-02,4.054053872823715904e-02,3.603603690862656334e-02,4.954954981803894737e-02,7.207207381725311279e-02,5.855855718255042336e-02,2.702702768146992077e-02,5.855855718255042336e-02,7.207207381725311279e-02,4.504504427313805320e-02,3.153153136372566223e-02,5.405405536293984153e-02,9.909909963607789474e-02,9.009008854627609253e-02,8.558558672666548295e-02,1.126126125454902510e-01,1.306306272745132446e-01,1.171171143651008467e-01,1.081081107258796692e-01,1.171171143651008467e-01,1.126126125454902510e-01,1.081081107258796692e-01,8.108107745647431808e-02,7.657657563686370850e-02,9.459459781646727128e-02,7.657657563686370850e-02,7.657657563686370850e-02,9.909909963607789474e-02,1.306306272745132446e-01,1.801801770925521573e-01,3.378378450870513916e-01,6.396396160125733532e-01,8.378378152847290039e-01,9.009009003639220081e-01,8.513513803482054554e-01,6.306306123733520508e-01,4.099099040031433105e-01,2.387387454509735107e-01,1.171171143651008467e-01,1.036036014556884766e-01,1.306306272745132446e-01,1.261261254549026489e-01,1.216216236352920255e-01,1.306306272745132446e-01,1.441441476345061978e-01,1.486486494541168213e-01,1.261261254549026489e-01,1.441441476345061978e-01,1.531531512737273892e-01,1.576576530933379849e-01,1.351351290941238126e-01,1.531531512737273892e-01,1.891891956329345426e-01,1.711711734533309937e-01,1.621621549129486084e-01,1.756756752729415616e-01,1.936936974525452215e-01,1.846846789121628363e-01,0.000000000000000000e+00,0.000000000000000000e+00,0.000000000000000000e+00,0.000000000000000000e+00,0.000000000000000000e+00,0.000000000000000000e+00,0.000000000000000000e+00,0.000000000000000000e+00,0.000000000000000000e+00,0.000000000000000000e+00,0.000000000000000000e+00,0.000000000000000000e+00,0.000000000000000000e+00,0.000000000000000000e+00,0.000000000000000000e+00,0.000000000000000000e+00,0.000000000000000000e+00,0.000000000000000000e+00,0.000000000000000000e+00,0.000000000000000000e+00,0.000000000000000000e+00,0.000000000000000000e+00,0.000000000000000000e+00,0.000000000000000000e+00,0.000000000000000000e+00,0.000000000000000000e+00,0.000000000000000000e+00,0.000000000000000000e+00,0.000000000000000000e+00,0.000000000000000000e+00,0.000000000000000000e+00,0.000000000000000000e+00,0.000000000000000000e+00,0.000000000000000000e+00,0.000000000000000000e+00,0.000000000000000000e+00,0.000000000000000000e+00,0.000000000000000000e+00,0.000000000000000000e+00,0.000000000000000000e+00,0.000000000000000000e+00,0.000000000000000000e+00,0.000000000000000000e+00
1.000000000000000000e+00,8.104838728904723011e-01,4.758064448833466131e-01,8.064515888690945711e-02,4.435483738780021667e-02,1.653225868940353116e-01,1.935483813285827637e-01,2.298387140035628995e-01,2.620967626571655273e-01,2.701613008975982666e-01,2.500000000000000000e-01,2.500000000000000000e-01,2.701613008975982666e-01,2.782258093357086182e-01,2.620967626571655273e-01,2.500000000000000000e-01,2.580645084381103516e-01,2.540322542190551758e-01,2.419354766607283991e-01,2.258064448833465576e-01,2.419354766607283991e-01,2.419354766607283991e-01,2.177419364452362061e-01,2.137096822261810580e-01,2.177419364452362061e-01,2.137096822261810580e-01,2.056451588869094849e-01,1.895161271095276156e-01,2.056451588869094849e-01,2.177419364452362061e-01,2.137096822261810580e-01,2.217741906642913541e-01,2.338709682226180475e-01,2.540322542190551758e-01,2.580645084381103516e-01,2.822580635547637939e-01,3.225806355476379395e-01,3.548386991024017334e-01,3.830645084381104071e-01,4.314516186714171808e-01,4.637096822261809748e-01,4.879032373428344727e-01,4.717741906642913263e-01,4.637096822261809748e-01,4.717741906642913263e-01,4.637096822261809748e-01,4.516128897666931152e-01,4.395161271095275879e-01,4.475806355476378839e-01,4.354838728904724121e-01,4.112903177738189697e-01,4.032258093357086737e-01,4.193548262119293213e-01,4.112903177738189697e-01,4.032258093357086737e-01,3.991935551166534424e-01,4.153225719928740900e-01,4.193548262119293213e-01,4.032258093357086737e-01,3.870967626571655273e-01,4.072580635547637939e-01,4.072580635547637939e-01,3.911290466785430908e-01,3.991935551166534424e-01,4.112903177738189697e-01,4.274193644523621161e-01,4.274193644523621161e-01,4.516128897666931152e-01,4.717741906642913263e-01,4.758064448833466131e-01,4.798386991024016779e-01,4.717741906642913263e-01,4.516128897666931152e-01,4.153225719928740900e-01,4.112903177738189697e-01,3.790322542190552313e-01,3.548386991024017334e-01,3.548386991024017334e-01,3.467741906642913263e-01,3.346774280071257990e-01,3.467741906642913263e-01,3.588709533214569092e-01,3.306451737880706232e-01,3.427419364452362061e-01,3.467741906642913263e-01,3.588709533214569092e-01,3.991935551166534424e-01,5.604838728904723011e-01,8.467742204666137695e-01,9.879032373428343616e-01,7.379032373428343616e-01,3.830645084381104071e-01,0.000000000000000000e+00,4.032257944345473376e-03,1.612903177738189420e-01,2.217741906642913541e-01,2.459677457809447965e-01,2.540322542190551758e-01,2.459677457809447965e-01,2.419354766607283991e-01,2.540322542190551758e-01,2.500000000000000000e-01,2.419354766607283991e-01,2.217741906642913541e-01,2.419354766607283991e-01,2.419354766607283991e-01,2.298387140035628995e-01,0.000000000000000000e+00,0.000000000000000000e+00,0.000000000000000000e+00,0.000000000000000000e+00,0.000000000000000000e+00,0.000000000000000000e+00,0.000000000000000000e+00,0.000000000000000000e+00,0.000000000000000000e+00,0.000000000000000000e+00,0.000000000000000000e+00,0.000000000000000000e+00,0.000000000000000000e+00,0.000000000000000000e+00,0.000000000000000000e+00,0.000000000000000000e+00,0.000000000000000000e+00,0.000000000000000000e+00,0.000000000000000000e+00,0.000000000000000000e+00,0.000000000000000000e+00,0.000000000000000000e+00,0.000000000000000000e+00,0.000000000000000000e+00,0.000000000000000000e+00,0.000000000000000000e+00,0.000000000000000000e+00,0.000000000000000000e+00,0.000000000000000000e+00,0.000000000000000000e+00,0.000000000000000000e+00,0.000000000000000000e+00,0.000000000000000000e+00,0.000000000000000000e+00,0.000000000000000000e+00,0.000000000000000000e+00,0.000000000000000000e+00,0.000000000000000000e+00,0.000000000000000000e+00,0.000000000000000000e+00,0.000000000000000000e+00,0.000000000000000000e+00,0.000000000000000000e+00,0.000000000000000000e+00,0.000000000000000000e+00,0.000000000000000000e+00,0.000000000000000000e+00,0.000000000000000000e+00,0.000000000000000000e+00,0.000000000000000000e+00,0.000000000000000000e+00,0.000000000000000000e+00,0.000000000000000000e+00,0.000000000000000000e+00,0.000000000000000000e+00,0.000000000000000000e+00,0.000000000000000000e+00,0.000000000000000000e+00,0.000000000000000000e+00,0.000000000000000000e+00,0.000000000000000000e+00,0.000000000000000000e+00,0.000000000000000000e+00,0.000000000000000000e+00,0.000000000000000000e+00,0.000000000000000000e+00,0.000000000000000000e+00,0.000000000000000000e+00,0.000000000000000000e+00,0.000000000000000000e+00,0.000000000000000000e+00,0.000000000000000000e+00,0.000000000000000000e+00,0.000000000000000000e+00,0.000000000000000000e+00,0.000000000000000000e+00,0.000000000000000000e+00,0.000000000000000000e+00,0.000000000000000000e+00,0.000000000000000000e+00,0.000000000000000000e+00
1.000000000000000000e+00,6.666666865348814808e-01,1.004566177725791931e-01,3.652967885136604309e-02,7.305935770273208618e-02,5.022830888628959656e-02,1.826483942568302155e-02,1.050228327512741089e-01,1.324200928211211881e-01,9.132420271635056930e-02,1.187214627861976762e-01,1.826484054327011386e-01,2.420091331005096436e-01,2.648401856422424316e-01,2.557077705860137384e-01,2.602739632129668634e-01,2.648401856422424316e-01,2.557077705860137384e-01,2.785388231277465265e-01,2.922374308109284002e-01,2.876712381839752752e-01,2.694063782691956122e-01,2.876712381839752752e-01,2.968036532402038574e-01,3.059360682964324951e-01,3.059360682964324951e-01,3.333333432674407404e-01,3.561643958091736395e-01,3.652968108654022772e-01,3.652968108654022772e-01,4.018264710903167725e-01,4.383561611175536554e-01,4.840182662010192871e-01,4.885844886302946888e-01,5.296803712844848633e-01,5.707762837409972034e-01,5.525113940238951526e-01,5.388127565383912243e-01,5.205479264259337269e-01,5.068492889404296875e-01,4.566209912300108753e-01,4.063926935195922296e-01,3.744292259216308594e-01,3.515981733798981268e-01,2.968036532402038574e-01,2.602739632129668634e-01,2.328767180442810059e-01,2.602739632129668634e-01,2.602739632129668634e-01,2.511415481567382257e-01,2.557077705860137384e-01,2.602739632129668634e-01,2.602739632129668634e-01,2.374429255723952414e-01,2.465753406286239624e-01,2.602739632129668634e-01,2.191780805587768277e-01,2.146118730306625366e-01,2.374429255723952414e-01,2.648401856422424316e-01,2.511415481567382257e-01,2.465753406286239624e-01,2.648401856422424316e-01,2.831050157546997070e-01,3.013698756694793701e-01,2.785388231277465265e-01,2.739726006984710138e-01,2.648401856422424316e-01,2.420091331005096436e-01,2.739726006984710138e-01,2.922374308109284002e-01,2.785388231277465265e-01,2.831050157546997070e-01,2.648401856422424316e-01,2.739726006984710138e-01,2.602739632129668634e-01,2.602739632129668634e-01,2.785388231277465265e-01,2.831050157546997070e-01,2.831050157546997070e-01,3.059360682964324951e-01,2.922374308109284002e-01,3.059360682964324951e-01,3.515981733798981268e-01,4.429223835468292236e-01,6.894977092742919922e-01,9.086757898330688477e-01,6.118721365928649902e-01,7.305935770273208618e-02,0.000000000000000000e+00,6.392694264650344849e-02,9.132420271635056930e-02,1.004566177725791931e-01,1.780821979045868197e-01,1.643835604190826138e-01,1.643835604190826138e-01,1.826484054327011386e-01,2.420091331005096436e-01,3.013698756694793701e-01,3.196347057819366455e-01,2.922374308109284002e-01,2.922374308109284002e-01,3.196347057819366455e-01,0.000000000000000000e+00,0.000000000000000000e+00,0.000000000000000000e+00,0.000000000000000000e+00,0.000000000000000000e+00,0.000000000000000000e+00,0.000000000000000000e+00,0.000000000000000000e+00,0.000000000000000000e+00,0.000000000000000000e+00,0.000000000000000000e+00,0.000000000000000000e+00,0.000000000000000000e+00,0.000000000000000000e+00,0.000000000000000000e+00,0.000000000000000000e+00,0.000000000000000000e+00,0.000000000000000000e+00,0.000000000000000000e+00,0.000000000000000000e+00,0.000000000000000000e+00,0.000000000000000000e+00,0.000000000000000000e+00,0.000000000000000000e+00,0.000000000000000000e+00,0.000000000000000000e+00,0.000000000000000000e+00,0.000000000000000000e+00,0.000000000000000000e+00,0.000000000000000000e+00,0.000000000000000000e+00,0.000000000000000000e+00,0.000000000000000000e+00,0.000000000000000000e+00,0.000000000000000000e+00,0.000000000000000000e+00,0.000000000000000000e+00,0.000000000000000000e+00,0.000000000000000000e+00,0.000000000000000000e+00,0.000000000000000000e+00,0.000000000000000000e+00,0.000000000000000000e+00,0.000000000000000000e+00,0.000000000000000000e+00,0.000000000000000000e+00,0.000000000000000000e+00,0.000000000000000000e+00,0.000000000000000000e+00,0.000000000000000000e+00,0.000000000000000000e+00,0.000000000000000000e+00,0.000000000000000000e+00,0.000000000000000000e+00,0.000000000000000000e+00,0.000000000000000000e+00,0.000000000000000000e+00,0.000000000000000000e+00,0.000000000000000000e+00,0.000000000000000000e+00,0.000000000000000000e+00,0.000000000000000000e+00,0.000000000000000000e+00,0.000000000000000000e+00,0.000000000000000000e+00,0.000000000000000000e+00,0.000000000000000000e+00,0.000000000000000000e+00,0.000000000000000000e+00,0.000000000000000000e+00,0.000000000000000000e+00,0.000000000000000000e+00,0.000000000000000000e+00,0.000000000000000000e+00,0.000000000000000000e+00,0.000000000000000000e+00,0.000000000000000000e+00,0.000000000000000000e+00,0.000000000000000000e+00,0.000000000000000000e+00,0.000000000000000000e+00,0.000000000000000000e+00,0.000000000000000000e+00,0.000000000000000000e+00,1.000000000000000000e+00
9.836956262588499866e-01,1.000000000000000000e+00,3.315217494964600720e-01,0.000000000000000000e+00,1.086956486105918745e-01,1.630434840917587280e-01,1.304347813129425049e-01,1.902173906564712247e-01,2.880434691905975342e-01,2.228260934352875033e-01,1.793478280305862427e-01,2.717391252517699640e-01,4.021739065647124689e-01,4.239130318164825439e-01,3.967391252517700195e-01,4.184782505035399280e-01,4.456521868705750067e-01,4.402174055576325018e-01,4.347825944423676092e-01,4.347825944423676092e-01,4.402174055576325018e-01,4.402174055576325018e-01,4.510869681835175116e-01,4.619565308094025213e-01,4.891304373741148792e-01,4.782608747482299805e-01,4.619565308094025213e-01,5.054348111152648926e-01,5.489130616188049316e-01,5.597826242446899414e-01,5.923913121223449707e-01,6.521739363670349121e-01,6.847826242446899414e-01,6.684782505035400391e-01,6.630434989929199219e-01,7.228260636329650879e-01,7.173913121223449707e-01,6.793478131294249378e-01,6.576086878776550293e-01,6.304348111152648926e-01,5.652173757553100586e-01,5.054348111152648926e-01,4.836956560611724854e-01,4.673913121223450262e-01,4.619565308094025213e-01,4.347825944423676092e-01,4.021739065647124689e-01,4.021739065647124689e-01,4.130434691905974787e-01,4.130434691905974787e-01,3.750000000000000000e-01,3.967391252517700195e-01,4.239130318164825439e-01,3.804347813129424494e-01,3.913043439388275146e-01,4.130434691905974787e-01,4.130434691905974787e-01,4.130434691905974787e-01,4.021739065647124689e-01,4.239130318164825439e-01,4.130434691905974787e-01,4.347825944423676092e-01,4.293478131294249378e-01,4.184782505035399280e-01,4.347825944423676092e-01,4.456521868705750067e-01,4.130434691905974787e-01,4.130434691905974787e-01,4.347825944423676092e-01,4.293478131294249378e-01,4.130434691905974787e-01,4.402174055576325018e-01,4.184782505035399280e-01,4.021739065647124689e-01,3.967391252517700195e-01,4.021739065647124689e-01,4.347825944423676092e-01,4.021739065647124689e-01,4.076086878776550293e-01,4.076086878776550293e-01,3.967391252517700195e-01,4.021739065647124689e-01,4.076086878776550293e-01,4.021739065647124689e-01,4.184782505035399280e-01,3.750000000000000000e-01,3.804347813129424494e-01,4.076086878776550293e-01,4.130434691905974787e-01,3.967391252517700195e-01,4.021739065647124689e-01,4.076086878776550293e-01,3.967391252517700195e-01,3.967391252517700195e-01,3.967391252517700195e-01,4.293478131294249378e-01,4.130434691905974787e-01,4.184782505035399280e-01,4.076086878776550293e-01,4.130434691905974787e-01,3.967391252517700195e-01,3.967391252517700195e-01,3.804347813129424494e-01,4.402174055576325018e-01,4.347825944423676092e-01,4.076086878776550293e-01,3.913043439388275146e-01,4.076086878776550293e-01,4.293478131294249378e-01,4.402174055576325018e-01,4.021739065647124689e-01,4.239130318164825439e-01,4.239130318164825439e-01,3.913043439388275146e-01,4.021739065647124689e-01,3.858695626258849543e-01,4.130434691905974787e-01,4.184782505035399280e-01,4.293478131294249378e-01,4.293478131294249378e-01,4.130434691905974787e-01,4.021739065647124689e-01,4.239130318164825439e-01,4.456521868705750067e-01,4.239130318164825439e-01,4.021739065647124689e-01,3.967391252517700195e-01,4.184782505035399280e-01,4.293478131294249378e-01,4.402174055576325018e-01,4.347825944423676092e-01,4.402174055576325018e-01,4.347825944423676092e-01,4.130434691905974787e-01,4.130434691905974787e-01,4.456521868705750067e-01,4.402174055576325018e-01,4.347825944423676092e-01,4.130434691905974787e-01,4.184782505035399280e-01,4.184782505035399280e-01,4.293478131294249378e-01,4.293478131294249378e-01,4.456521868705750067e-01,4.239130318164825439e-01,4.293478131294249378e-01,4.130434691905974787e-01,4.184782505035399280e-01,4.565217494964600164e-01,4.347825944423676092e-01,4.184782505035399280e-01,4.239130318164825439e-01,4.402174055576325018e-01,4.565217494964600164e-01,4.293478131294249378e-01,4.347825944423676092e-01,4.565217494964600164e-01,4.402174055576325018e-01,4.293478131294249378e-01,4.402174055576325018e-01,4.402174055576325018e-01,4.510869681835175116e-01,4.347825944423676092e-01,4.456521868705750067e-01,4.347825944423676092e-01,4.293478131294249378e-01,4.076086878776550293e-01,4.456521868705750067e-01,4.402174055576325018e-01,4.510869681835175116e-01,4.347825944423676092e-01,4.293478131294249378e-01,4.347825944423676092e-01,4.293478131294249378e-01,4.130434691905974787e-01,4.402174055576325018e-01,4.565217494964600164e-01,4.836956560611724854e-01,4.619565308094025213e-01,4.836956560611724854e-01,5.000000000000000000e-01,4.945652186870574951e-01,5.108695626258850098e-01,5.108695626258850098e-01,5.054348111152648926e-01,4.728260934352874201e-01,4.347825944423676092e-01,1.000000000000000000e+00
1.000000000000000000e+00,9.115044474601744495e-01,2.168141603469848910e-01,0.000000000000000000e+00,1.017699092626571516e-01,1.991150379180908203e-01,1.769911497831344882e-01,1.946902722120284757e-01,2.522123754024505615e-01,2.389380484819411954e-01,2.168141603469848910e-01,2.831858396530151367e-01,3.849557638168335516e-01,3.982300758361816406e-01,3.938052952289580744e-01,3.849557638168335516e-01,4.026548564434052069e-01,4.026548564434052069e-01,3.982300758361816406e-01,3.805309832096099854e-01,3.982300758361816406e-01,4.159291982650756836e-01,4.203539788722991943e-01,4.070796370506287731e-01,4.203539788722991943e-01,4.601770043373107910e-01,4.690265357494354248e-01,4.424778819084167480e-01,5.000000000000000000e-01,5.486725568771361194e-01,5.398229956626892090e-01,5.752212405204772949e-01,6.150442361831665039e-01,6.106194853782652698e-01,6.415929198265075684e-01,6.592920422554016113e-01,6.371681690216064453e-01,6.017699241638183594e-01,5.796459913253784180e-01,5.132743120193481445e-01,4.911504387855529785e-01,4.867256581783295233e-01,4.424778819084167480e-01,4.115044176578521729e-01,3.805309832096099854e-01,3.761062026023864746e-01,3.407079577445983887e-01,3.495575189590454102e-01,3.495575189590454102e-01,3.716814219951629639e-01,3.451327383518218994e-01,3.407079577445983887e-01,3.407079577445983887e-01,3.407079577445983887e-01,3.451327383518218994e-01,3.318583965301513672e-01,3.053097426891326349e-01,2.964601814746857245e-01,3.008849620819091797e-01,3.141593039035796564e-01,3.539822995662688654e-01,3.716814219951629639e-01,3.539822995662688654e-01,3.716814219951629639e-01,3.716814219951629639e-01,3.716814219951629639e-01,3.495575189590454102e-01,3.407079577445983887e-01,3.407079577445983887e-01,3.495575189590454102e-01,3.495575189590454102e-01,3.451327383518218994e-01,3.761062026023864746e-01,3.893805444240569513e-01,3.628318607807160534e-01,3.539822995662688654e-01,3.672566413879394531e-01,3.495575189590454102e-01,3.539822995662688654e-01,3.584070801734923761e-01,3.539822995662688654e-01,3.451327383518218994e-01,3.362831771373748224e-01,3.362831771373748224e-01,3.584070801734923761e-01,4.026548564434052069e-01,4.336283206939696711e-01,5.176991224288941540e-01,7.566371560096739612e-01,9.867256879806518555e-01,7.787610888481139026e-01,1.504424810409545898e-01,8.849557489156723022e-03,1.238938048481940946e-01,1.371681392192840299e-01,1.150442510843276700e-01,2.035398185253143866e-01,2.477876096963881891e-01,1.725663691759109497e-01,1.637168079614639282e-01,2.654867172241210938e-01,3.318583965301513672e-01,3.318583965301513672e-01,3.407079577445983887e-01,3.672566413879394531e-01,3.584070801734923761e-01,0.000000000000000000e+00,0.000000000000000000e+00,0.000000000000000000e+00,0.000000000000000000e+00,0.000000000000000000e+00,0.000000000000000000e+00,0.000000000000000000e+00,0.000000000000000000e+00,0.000000000000000000e+00,0.000000000000000000e+00,0.000000000000000000e+00,0.000000000000000000e+00,0.000000000000000000e+00,0.000000000000000000e+00,0.000000000000000000e+00,0.000000000000000000e+00,0.000000000000000000e+00,0.000000000000000000e+00,0.000000000000000000e+00,0.000000000000000000e+00,0.000000000000000000e+00,0.000000000000000000e+00,0.000000000000000000e+00,0.000000000000000000e+00,0.000000000000000000e+00,0.000000000000000000e+00,0.000000000000000000e+00,0.000000000000000000e+00,0.000000000000000000e+00,0.000000000000000000e+00,0.000000000000000000e+00,0.000000000000000000e+00,0.000000000000000000e+00,0.000000000000000000e+00,0.000000000000000000e+00,0.000000000000000000e+00,0.000000000000000000e+00,0.000000000000000000e+00,0.000000000000000000e+00,0.000000000000000000e+00,0.000000000000000000e+00,0.000000000000000000e+00,0.000000000000000000e+00,0.000000000000000000e+00,0.000000000000000000e+00,0.000000000000000000e+00,0.000000000000000000e+00,0.000000000000000000e+00,0.000000000000000000e+00,0.000000000000000000e+00,0.000000000000000000e+00,0.000000000000000000e+00,0.000000000000000000e+00,0.000000000000000000e+00,0.000000000000000000e+00,0.000000000000000000e+00,0.000000000000000000e+00,0.000000000000000000e+00,0.000000000000000000e+00,0.000000000000000000e+00,0.000000000000000000e+00,0.000000000000000000e+00,0.000000000000000000e+00,0.000000000000000000e+00,0.000000000000000000e+00,0.000000000000000000e+00,0.000000000000000000e+00,0.000000000000000000e+00,0.000000000000000000e+00,0.000000000000000000e+00,0.000000000000000000e+00,0.000000000000000000e+00,0.000000000000000000e+00,0.000000000000000000e+00,0.000000000000000000e+00,0.000000000000000000e+00,0.000000000000000000e+00,0.000000000000000000e+00,0.000000000000000000e+00,0.000000000000000000e+00,0.000000000000000000e+00,1.000000000000000000e+00
9.049773961305618286e-02,1.266968399286269864e-01,2.171945720911026001e-01,3.619909584522246759e-01,4.615384638309479870e-01,5.565611124038696289e-01,4.434389173984528143e-01,4.343891441822052002e-01,4.524886906147003174e-01,5.113122463226318359e-01,4.977375566959379993e-01,5.022624731063842773e-01,3.665158450603485107e-01,2.533936798572539728e-01,1.674208194017410278e-01,1.221719458699226518e-01,5.429864302277564309e-02,5.429864302277564309e-02,3.167420998215675354e-02,2.262443490326404572e-02,4.524887073785066605e-03,9.049774147570131475e-03,0.000000000000000000e+00,9.049774147570131475e-03,9.049774147570131475e-03,2.262443490326404572e-02,2.262443490326404572e-02,3.619909659028052590e-02,3.167420998215675354e-02,4.977375641465187767e-02,4.977375641465187767e-02,6.787330657243728638e-02,6.334841996431350708e-02,7.239819318056105180e-02,9.502262622117996216e-02,1.266968399286269864e-01,1.176470592617988725e-01,1.493212729692459384e-01,1.719457060098648071e-01,2.081447988748550415e-01,2.171945720911026001e-01,2.443438917398453036e-01,2.352941185235977450e-01,2.398190051317214411e-01,2.307692319154739935e-01,2.126696854829788208e-01,1.719457060098648071e-01,1.447963863611221036e-01,1.085972860455513000e-01,9.049773961305618286e-02,6.787330657243728638e-02,7.239819318056105180e-02,5.429864302277564309e-02,4.524886980652809143e-02,4.524886980652809143e-02,4.977375641465187767e-02,4.072398319840431213e-02,5.429864302277564309e-02,3.619909659028052590e-02,4.524886980652809143e-02,3.167420998215675354e-02,4.524886980652809143e-02,2.714932151138782154e-02,3.167420998215675354e-02,3.167420998215675354e-02,3.619909659028052590e-02,2.714932151138782154e-02,4.072398319840431213e-02,1.809954829514026295e-02,2.714932151138782154e-02,1.809954829514026295e-02,3.619909659028052590e-02,1.809954829514026295e-02,3.167420998215675354e-02,1.357466075569391077e-02,4.072398319840431213e-02,2.262443490326404572e-02,3.167420998215675354e-02,2.262443490326404572e-02,3.167420998215675354e-02,2.262443490326404572e-02,2.714932151138782154e-02,2.262443490326404572e-02,3.167420998215675354e-02,3.167420998215675354e-02,3.619909659028052590e-02,2.714932151138782154e-02,2.714932151138782154e-02,3.167420998215675354e-02,3.167420998215675354e-02,3.167420998215675354e-02,2.714932151138782154e-02,2.262443490326404572e-02,4.524886980652809143e-02,3.167420998215675354e-02,4.524886980652809143e-02,3.167420998215675354e-02,3.619909659028052590e-02,2.714932151138782154e-02,4.524886980652809143e-02,4.072398319840431213e-02,5.429864302277564309e-02,5.429864302277564309e-02,5.429864302277564309e-02,4.072398319840431213e-02,5.882352963089942238e-02,4.524886980652809143e-02,4.977375641465187767e-02,4.072398319840431213e-02,6.334841996431350708e-02,5.429864302277564309e-02,5.429864302277564309e-02,4.524886980652809143e-02,6.334841996431350708e-02,5.882352963089942238e-02,6.787330657243728638e-02,5.429864302277564309e-02,6.787330657243728638e-02,5.882352963089942238e-02,6.787330657243728638e-02,5.429864302277564309e-02,7.239819318056105180e-02,6.334841996431350708e-02,7.692307978868483109e-02,6.787330657243728638e-02,8.144796639680862427e-02,9.502262622117996216e-02,1.312217265367507935e-01,1.312217265367507935e-01,1.628959327936172485e-01,1.312217265367507935e-01,1.764705926179885864e-01,1.628959327936172485e-01,1.583710461854934692e-01,1.402714997529983798e-01,1.402714997529983798e-01,1.131221726536750932e-01,9.502262622117996216e-02,6.334841996431350708e-02,6.787330657243728638e-02,4.977375641465187767e-02,5.882352963089942238e-02,5.429864302277564309e-02,5.882352963089942238e-02,4.072398319840431213e-02,5.882352963089942238e-02,4.524886980652809143e-02,5.882352963089942238e-02,5.882352963089942238e-02,9.049773961305618286e-02,1.493212729692459384e-01,2.488687783479689997e-01,4.796380102634428821e-01,7.692307829856871448e-01,9.683257937431334339e-01,1.000000000000000000e+00,5.837104320526124157e-01,2.217194586992264072e-01,9.954751282930375533e-02,1.131221726536750932e-01,9.049773961305618286e-02,6.334841996431350708e-02,4.977375641465187767e-02,4.977375641465187767e-02,4.072398319840431213e-02,4.524886980652809143e-02,2.262443490326404572e-02,4.072398319840431213e-02,3.167420998215675354e-02,3.619909659028052590e-02,3.619909659028052590e-02,5.882352963089942238e-02,6.334841996431350708e-02,7.239819318056105180e-02,7.239819318056105180e-02,9.502262622117996216e-02,9.049773961305618286e-02,1.131221726536750932e-01,1.221719458699226518e-01,1.312217265367507935e-01,1.402714997529983798e-01,1.583710461854934692e-01,1.764705926179885864e-01,2.036199122667312622e-01,2.126696854829788208e-01,0.000000000000000000e+00,0.000000000000000000e+00,1.000000000000000000e+00
9.611111283302308239e-01,1.000000000000000000e+00,5.518518686294556774e-01,1.018518507480621060e-01,4.074073955416678688e-02,8.518518507480621338e-02,9.444444626569749313e-02,8.888889104127885299e-02,8.518518507480621338e-02,7.037036865949629350e-02,7.037036865949629350e-02,7.407407462596891923e-02,7.222222536802291870e-02,6.666667014360427856e-02,6.296296417713163895e-02,6.111111119389533997e-02,5.185185000300408797e-02,4.629629477858544090e-02,4.444444552063941956e-02,4.444444552063941956e-02,2.962962910532951355e-02,2.037036977708339691e-02,2.407407388091087688e-02,1.851851865649223675e-02,9.259259328246114903e-03,3.703703638166189194e-03,7.407407276332378387e-03,9.259259328246114903e-03,1.481481455266475677e-02,2.407407388091087688e-02,4.074073955416678688e-02,5.925925821065902710e-02,7.592592388391494751e-02,9.444444626569749313e-02,1.148148179054260254e-01,1.277777850627899170e-01,1.277777850627899170e-01,1.203703731298446516e-01,1.240740716457366805e-01,1.314814835786819180e-01,1.166666671633720814e-01,1.074074059724807600e-01,1.203703731298446516e-01,1.203703731298446516e-01,1.037037000060081621e-01,1.018518507480621060e-01,1.018518507480621060e-01,1.000000014901161471e-01,8.703703433275222778e-02,8.703703433275222778e-02,8.888889104127885299e-02,9.259258955717088180e-02,8.518518507480621338e-02,8.148147910833357377e-02,9.259258955717088180e-02,9.074074029922483964e-02,7.407407462596891923e-02,7.407407462596891923e-02,7.592592388391494751e-02,7.592592388391494751e-02,6.296296417713163895e-02,6.111111119389533997e-02,7.777778059244157272e-02,9.629629552364349365e-02,1.055555567145347595e-01,9.259258955717088180e-02,9.629629552364349365e-02,1.018518507480621060e-01,1.129629611968994002e-01,1.185185164213180542e-01,1.351851820945739469e-01,1.703703701496124268e-01,2.425925880670547485e-01,3.777777850627899170e-01,6.018518805503845215e-01,7.833333611488343395e-01,9.351851940155028187e-01,7.462962865829466663e-01,2.314814776182174128e-01,1.851851865649223675e-02,4.814814776182175377e-02,6.666667014360427856e-02,6.666667014360427856e-02,7.222222536802291870e-02,6.296296417713163895e-02,5.185185000300408797e-02,4.814814776182175377e-02,5.555555596947669983e-02,5.000000074505805969e-02,4.074073955416678688e-02,4.259259253740311363e-02,4.259259253740311363e-02,3.518518432974814675e-02,2.777777798473834991e-02,2.037036977708339691e-02,2.222222276031970978e-02,1.296296250075101679e-02,0.000000000000000000e+00,0.000000000000000000e+00,0.000000000000000000e+00,0.000000000000000000e+00,0.000000000000000000e+00,0.000000000000000000e+00,0.000000000000000000e+00,0.000000000000000000e+00,0.000000000000000000e+00,0.000000000000000000e+00,0.000000000000000000e+00,0.000000000000000000e+00,0.000000000000000000e+00,0.000000000000000000e+00,0.000000000000000000e+00,0.000000000000000000e+00,0.000000000000000000e+00,0.000000000000000000e+00,0.000000000000000000e+00,0.000000000000000000e+00,0.000000000000000000e+00,0.000000000000000000e+00,0.000000000000000000e+00,0.000000000000000000e+00,0.000000000000000000e+00,0.000000000000000000e+00,0.000000000000000000e+00,0.000000000000000000e+00,0.000000000000000000e+00,0.000000000000000000e+00,0.000000000000000000e+00,0.000000000000000000e+00,0.000000000000000000e+00,0.000000000000000000e+00,0.000000000000000000e+00,0.000000000000000000e+00,0.000000000000000000e+00,0.000000000000000000e+00,0.000000000000000000e+00,0.000000000000000000e+00,0.000000000000000000e+00,0.000000000000000000e+00,0.000000000000000000e+00,0.000000000000000000e+00,0.000000000000000000e+00,0.000000000000000000e+00,0.000000000000000000e+00,0.000000000000000000e+00,0.000000000000000000e+00,0.000000000000000000e+00,0.000000000000000000e+00,0.000000000000000000e+00,0.000000000000000000e+00,0.000000000000000000e+00,0.000000000000000000e+00,0.000000000000000000e+00,0.000000000000000000e+00,0.000000000000000000e+00,0.000000000000000000e+00,0.000000000000000000e+00,0.000000000000000000e+00,0.000000000000000000e+00,0.000000000000000000e+00,0.000000000000000000e+00,0.000000000000000000e+00,0.000000000000000000e+00,0.000000000000000000e+00,0.000000000000000000e+00,0.000000000000000000e+00,0.000000000000000000e+00,0.000000000000000000e+00,0.000000000000000000e+00,0.000000000000000000e+00,0.000000000000000000e+00,0.000000000000000000e+00,0.000000000000000000e+00,0.000000000000000000e+00,0.000000000000000000e+00,0.000000000000000000e+00,0.000000000000000000e+00,0.000000000000000000e+00,0.000000000000000000e+00,0.000000000000000000e+00,0.000000000000000000e+00,0.000000000000000000e+00,0.000000000000000000e+00,0.000000000000000000e+00,0.000000000000000000e+00,0.000000000000000000e+00,0.000000000000000000e+00,1.000000000000000000e+00
9.826839566230771705e-01,9.826839566230771705e-01,3.203463256359099787e-01,8.658008649945259094e-03,8.658009022474290328e-02,1.601731628179549893e-01,1.515151560306549072e-01,1.601731628179549893e-01,2.554112672805786133e-01,2.337662279605865479e-01,1.904761940240860263e-01,2.251082211732864380e-01,2.987012863159180243e-01,3.679653704166411798e-01,3.636363744735717773e-01,3.679653704166411798e-01,3.809523880481720526e-01,3.809523880481720526e-01,3.722943663597106378e-01,3.766233623027801514e-01,3.852813839912415661e-01,3.939394056797028143e-01,3.852813839912415661e-01,3.939394056797028143e-01,4.069263935089110773e-01,4.242424368858337402e-01,4.069263935089110773e-01,4.199134111404418390e-01,4.632034599781035822e-01,4.891774952411652166e-01,5.108225345611572266e-01,5.238095521926879883e-01,5.627705454826354980e-01,5.887445807456970215e-01,5.930736064910888672e-01,6.017315983772277832e-01,6.406926512718199573e-01,6.450216174125672497e-01,5.930736064910888672e-01,5.670995712280274548e-01,5.411255359649658203e-01,5.064935088157653809e-01,4.588744640350341797e-01,4.199134111404418390e-01,4.155844151973723810e-01,3.896103799343109131e-01,3.679653704166411798e-01,3.549783527851104736e-01,3.549783527851104736e-01,3.679653704166411798e-01,3.463203608989716131e-01,3.333333432674407404e-01,3.549783527851104736e-01,3.506493568420410156e-01,3.333333432674407404e-01,3.463203608989716131e-01,3.549783527851104736e-01,3.419913351535796564e-01,3.160173296928405762e-01,3.116883039474487305e-01,3.290043175220488947e-01,3.549783527851104736e-01,3.549783527851104736e-01,3.419913351535796564e-01,3.766233623027801514e-01,3.939394056797028143e-01,3.593073487281799316e-01,3.593073487281799316e-01,3.722943663597106378e-01,3.506493568420410156e-01,3.203463256359099787e-01,3.333333432674407404e-01,3.766233623027801514e-01,3.636363744735717773e-01,3.419913351535796564e-01,3.463203608989716131e-01,3.549783527851104736e-01,3.463203608989716131e-01,3.333333432674407404e-01,3.376623392105101984e-01,3.593073487281799316e-01,3.593073487281799316e-01,3.333333432674407404e-01,3.463203608989716131e-01,3.593073487281799316e-01,3.809523880481720526e-01,3.766233623027801514e-01,4.458874464035033625e-01,6.926407217979432263e-01,1.000000000000000000e+00,9.307359457015992321e-01,2.727272808551788330e-01,0.000000000000000000e+00,6.926406919956207275e-02,1.428571492433547974e-01,1.298701316118240356e-01,1.731601804494857511e-01,2.640692591667174738e-01,2.121212184429168701e-01,1.731601804494857511e-01,2.337662279605865479e-01,2.943722903728485107e-01,3.376623392105101984e-01,3.636363744735717773e-01,3.679653704166411798e-01,3.722943663597106378e-01,3.419913351535796564e-01,3.506493568420410156e-01,3.722943663597106378e-01,3.636363744735717773e-01,3.549783527851104736e-01,3.722943663597106378e-01,3.939394056797028143e-01,3.939394056797028143e-01,3.852813839912415661e-01,4.069263935089110773e-01,4.415584504604340155e-01,4.632034599781035822e-01,4.718614816665649969e-01,4.935064911842346191e-01,5.541125535964965820e-01,5.800865888595581055e-01,5.800865888595581055e-01,6.017315983772277832e-01,6.320346593856811523e-01,6.320346593856811523e-01,6.060606241226196289e-01,5.800865888595581055e-01,5.670995712280274548e-01,5.194805264472961426e-01,4.675324559211730957e-01,4.155844151973723810e-01,4.155844151973723810e-01,4.025973975658416748e-01,3.636363744735717773e-01,3.463203608989716131e-01,3.506493568420410156e-01,3.419913351535796564e-01,3.290043175220488947e-01,3.203463256359099787e-01,3.419913351535796564e-01,0.000000000000000000e+00,0.000000000000000000e+00,0.000000000000000000e+00,0.000000000000000000e+00,0.000000000000000000e+00,0.000000000000000000e+00,0.000000000000000000e+00,0.000000000000000000e+00,0.000000000000000000e+00,0.000000000000000000e+00,0.000000000000000000e+00,0.000000000000000000e+00,0.000000000000000000e+00,0.000000000000000000e+00,0.000000000000000000e+00,0.000000000000000000e+00,0.000000000000000000e+00,0.000000000000000000e+00,0.000000000000000000e+00,0.000000000000000000e+00,0.000000000000000000e+00,0.000000000000000000e+00,0.000000000000000000e+00,0.000000000000000000e+00,0.000000000000000000e+00,0.000000000000000000e+00,0.000000000000000000e+00,0.000000000000000000e+00,0.000000000000000000e+00,0.000000000000000000e+00,0.000000000000000000e+00,0.000000000000000000e+00,0.000000000000000000e+00,0.000000000000000000e+00,0.000000000000000000e+00,0.000000000000000000e+00,0.000000000000000000e+00,0.000000000000000000e+00,0.000000000000000000e+00,0.000000000000000000e+00,0.000000000000000000e+00,0.000000000000000000e+00,0.000000000000000000e+00,0.000000000000000000e+00,0.000000000000000000e+00,0.000000000000000000e+00,1.000000000000000000e+00
6.272401213645935059e-01,3.225806355476379395e-02,0.000000000000000000e+00,8.960573375225067139e-02,7.526881992816925049e-02,7.168459147214888139e-02,9.318996220827104049e-02,9.318996220827104049e-02,1.254480332136153897e-01,1.182795688509941240e-01,1.362007111310958585e-01,1.433691829442977628e-01,1.577060967683792114e-01,1.541218608617782593e-01,1.648745536804198941e-01,1.469534039497375211e-01,1.899641603231430054e-01,1.827957034111022672e-01,2.007168531417846402e-01,1.935483813285827637e-01,2.114695310592651367e-01,2.007168531417846402e-01,2.150537669658660889e-01,2.186379879713058472e-01,2.186379879713058472e-01,1.971326172351836881e-01,1.971326172351836881e-01,1.756272464990615845e-01,1.684587746858596802e-01,1.433691829442977628e-01,1.612903177738189420e-01,1.469534039497375211e-01,1.684587746858596802e-01,1.505376398563385010e-01,1.792114675045013428e-01,1.684587746858596802e-01,1.827957034111022672e-01,1.792114675045013428e-01,1.935483813285827637e-01,1.863799244165420532e-01,2.078853100538253507e-01,1.899641603231430054e-01,2.043010741472243708e-01,1.935483813285827637e-01,2.078853100538253507e-01,1.899641603231430054e-01,2.329749166965484619e-01,2.222222238779068271e-01,2.401433736085892001e-01,2.329749166965484619e-01,2.401433736085892001e-01,2.401433736085892001e-01,2.508960664272307794e-01,2.293906807899475098e-01,2.473118305206298551e-01,2.329749166965484619e-01,2.652329802513122003e-01,2.437275946140289029e-01,2.616487443447112482e-01,2.401433736085892001e-01,2.580645084381103516e-01,2.544802725315093439e-01,2.759856581687926691e-01,2.437275946140289029e-01,2.580645084381103516e-01,2.688172161579132080e-01,2.688172161579132080e-01,2.652329802513122003e-01,2.652329802513122003e-01,2.473118305206298551e-01,2.724014222621917169e-01,2.544802725315093439e-01,2.939068078994750421e-01,2.580645084381103516e-01,2.939068078994750421e-01,2.652329802513122003e-01,2.795698940753936768e-01,2.688172161579132080e-01,2.688172161579132080e-01,2.616487443447112482e-01,2.759856581687926691e-01,2.437275946140289029e-01,2.544802725315093439e-01,2.580645084381103516e-01,2.903225719928740900e-01,2.688172161579132080e-01,2.831541299819945734e-01,2.329749166965484619e-01,2.580645084381103516e-01,2.724014222621917169e-01,2.652329802513122003e-01,2.616487443447112482e-01,2.724014222621917169e-01,2.652329802513122003e-01,2.903225719928740900e-01,2.544802725315093439e-01,2.867383658885955255e-01,2.437275946140289029e-01,2.795698940753936768e-01,2.652329802513122003e-01,2.795698940753936768e-01,2.795698940753936768e-01,2.759856581687926691e-01,2.652329802513122003e-01,2.795698940753936768e-01,2.724014222621917169e-01,3.297491073608397882e-01,3.333333432674407404e-01,3.691756129264832098e-01,3.799283206462860107e-01,3.476702570915222168e-01,2.759856581687926691e-01,4.480286836624146063e-01,9.856630563735961914e-01,1.000000000000000000e+00,3.405017852783203125e-01,3.405017852783203125e-01,2.831541299819945734e-01,2.831541299819945734e-01,2.652329802513122003e-01,2.903225719928740900e-01,2.831541299819945734e-01,3.046594858169556219e-01,2.939068078994750421e-01,2.939068078994750421e-01,0.000000000000000000e+00,0.000000000000000000e+00,0.000000000000000000e+00,0.000000000000000000e+00,0.000000000000000000e+00,0.000000000000000000e+00,0.000000000000000000e+00,0.000000000000000000e+00,0.000000000000000000e+00,0.000000000000000000e+00,0.000000000000000000e+00,0.000000000000000000e+00,0.000000000000000000e+00,0.000000000000000000e+00,0.000000000000000000e+00,0.000000000000000000e+00,0.000000000000000000e+00,0.000000000000000000e+00,0.000000000000000000e+00,0.000000000000000000e+00,0.000000000000000000e+00,0.000000000000000000e+00,0.000000000000000000e+00,0.000000000000000000e+00,0.000000000000000000e+00,0.000000000000000000e+00,0.000000000000000000e+00,0.000000000000000000e+00,0.000000000000000000e+00,0.000000000000000000e+00,0.000000000000000000e+00,0.000000000000000000e+00,0.000000000000000000e+00,0.000000000000000000e+00,0.000000000000000000e+00,0.000000000000000000e+00,0.000000000000000000e+00,0.000000000000000000e+00,0.000000000000000000e+00,0.000000000000000000e+00,0.000000000000000000e+00,0.000000000000000000e+00,0.000000000000000000e+00,0.000000000000000000e+00,0.000000000000000000e+00,0.000000000000000000e+00,0.000000000000000000e+00,0.000000000000000000e+00,0.000000000000000000e+00,0.000000000000000000e+00,0.000000000000000000e+00,0.000000000000000000e+00,0.000000000000000000e+00,0.000000000000000000e+00,0.000000000000000000e+00,0.000000000000000000e+00,0.000000000000000000e+00,0.000000000000000000e+00,0.000000000000000000e+00,0.000000000000000000e+00,0.000000000000000000e+00,0.000000000000000000e+00,1.000000000000000000e+00
1.000000000000000000e+00,7.729730010032652698e-01,7.027027010917663574e-02,0.000000000000000000e+00,1.486486494541168213e-01,1.837837845087051392e-01,2.486486434936523993e-01,2.351351380348205011e-01,2.324324250221252441e-01,2.513513565063476007e-01,2.594594657421111505e-01,2.432432472705840509e-01,2.756756842136383612e-01,2.594594657421111505e-01,2.864864766597747803e-01,2.810810804367064875e-01,2.918919026851654053e-01,3.108108043670654297e-01,3.000000119209288996e-01,3.351351320743560791e-01,3.324324190616608221e-01,3.513513505458831787e-01,3.621621727943420965e-01,3.702702820301055908e-01,4.054054021835327704e-01,3.918918967247008722e-01,4.054054021835327704e-01,3.783783912658690851e-01,3.783783912658690851e-01,3.567567467689514160e-01,3.459459543228148859e-01,3.054054081439971924e-01,3.054054081439971924e-01,2.972972989082336426e-01,3.108108043670654297e-01,3.054054081439971924e-01,3.324324190616608221e-01,3.243243098258972168e-01,3.405405282974243164e-01,3.270270228385924738e-01,3.216216266155242920e-01,2.891891896724700928e-01,3.162162303924560547e-01,3.027026951313018799e-01,3.054054081439971924e-01,3.081081211566925049e-01,3.189189136028289240e-01,3.108108043670654297e-01,3.216216266155242920e-01,3.135135173797607422e-01,3.216216266155242920e-01,3.405405282974243164e-01,3.621621727943420965e-01,3.189189136028289240e-01,3.270270228385924738e-01,3.324324190616608221e-01,3.351351320743560791e-01,3.297297358512877863e-01,3.162162303924560547e-01,0.000000000000000000e+00,0.000000000000000000e+00,0.000000000000000000e+00,0.000000000000000000e+00,0.000000000000000000e+00,0.000000000000000000e+00,0.000000000000000000e+00,0.000000000000000000e+00,0.000000000000000000e+00,0.000000000000000000e+00,0.000000000000000000e+00,0.000000000000000000e+00,0.000000000000000000e+00,0.000000000000000000e+00,0.000000000000000000e+00,0.000000000000000000e+00,0.000000000000000000e+00,0.000000000000000000e+00,0.000000000000000000e+00,0.000000000000000000e+00,0.000000000000000000e+00,0.000000000000000000e+00,0.000000000000000000e+00,0.000000000000000000e+00,0.000000000000000000e+00,0.000000000000000000e+00,0.000000000000000000e+00,0.000000000000000000e+00,0.000000000000000000e+00,0.000000000000000000e+00,0.000000000000000000e+00,0.000000000000000000e+00,0.000000000000000000e+00,0.000000000000000000e+00,0.000000000000000000e+00,0.000000000000000000e+00,0.000000000000000000e+00,0.000000000000000000e+00,0.000000000000000000e+00,0.000000000000000000e+00,0.000000000000000000e+00,0.000000000000000000e+00,0.000000000000000000e+00,0.000000000000000000e+00,0.000000000000000000e+00,0.000000000000000000e+00,0.000000000000000000e+00,0.000000000000000000e+00,0.000000000000000000e+00,0.000000000000000000e+00,0.000000000000000000e+00,0.000000000000000000e+00,0.000000000000000000e+00,0.000000000000000000e+00,0.000000000000000000e+00,0.000000000000000000e+00,0.000000000000000000e+00,0.000000000000000000e+00,0.000000000000000000e+00,0.000000000000000000e+00,0.000000000000000000e+00,0.000000000000000000e+00,0.000000000000000000e+00,0.000000000000000000e+00,0.000000000000000000e+00,0.000000000000000000e+00,0.000000000000000000e+00,0.000000000000000000e+00,0.000000000000000000e+00,0.000000000000000000e+00,0.000000000000000000e+00,0.000000000000000000e+00,0.000000000000000000e+00,0.000000000000000000e+00,0.000000000000000000e+00,0.000000000000000000e+00,0.000000000000000000e+00,0.000000000000000000e+00,0.000000000000000000e+00,0.000000000000000000e+00,0.000000000000000000e+00,0.000000000000000000e+00,0.000000000000000000e+00,0.000000000000000000e+00,0.000000000000000000e+00,0.000000000000000000e+00,0.000000000000000000e+00,0.000000000000000000e+00,0.000000000000000000e+00,0.000000000000000000e+00,0.000000000000000000e+00,0.000000000000000000e+00,0.000000000000000000e+00,0.000000000000000000e+00,0.000000000000000000e+00,0.000000000000000000e+00,0.000000000000000000e+00,0.000000000000000000e+00,0.000000000000000000e+00,0.000000000000000000e+00,0.000000000000000000e+00,0.000000000000000000e+00,0.000000000000000000e+00,0.000000000000000000e+00,0.000000000000000000e+00,0.000000000000000000e+00,0.000000000000000000e+00,0.000000000000000000e+00,0.000000000000000000e+00,0.000000000000000000e+00,0.000000000000000000e+00,0.000000000000000000e+00,0.000000000000000000e+00,0.000000000000000000e+00,0.000000000000000000e+00,0.000000000000000000e+00,0.000000000000000000e+00,0.000000000000000000e+00,0.000000000000000000e+00,0.000000000000000000e+00,0.000000000000000000e+00,0.000000000000000000e+00,0.000000000000000000e+00,0.000000000000000000e+00,0.000000000000000000e+00,0.000000000000000000e+00,0.000000000000000000e+00,0.000000000000000000e+00,1.000000000000000000e+00
0.000000000000000000e+00,9.756097570061683655e-03,7.439024746417997880e-02,1.621951162815093994e-01,2.402438968420028964e-01,2.914634048938751776e-01,3.707317113876342773e-01,4.426829218864440918e-01,4.987804889678956188e-01,5.609756112098693848e-01,6.121951341629028320e-01,6.121951341629028320e-01,6.060975790023803711e-01,6.146341562271118164e-01,6.158536672592164196e-01,6.317073106765747070e-01,6.414633989334106445e-01,6.329268217086791992e-01,6.487804651260375977e-01,6.670731902122496448e-01,6.914634108543395996e-01,6.829268336296081543e-01,7.121950984001159668e-01,7.304878234863282360e-01,7.353658676147460938e-01,7.317073345184326172e-01,7.414634227752685547e-01,7.329268455505371094e-01,7.243902683258055530e-01,6.902438998222351074e-01,6.634146571159362793e-01,6.536585092544555664e-01,6.000000238418579102e-01,5.695121884346008301e-01,5.536585450172424316e-01,5.304877758026124157e-01,5.182926654815673828e-01,5.036585330963134766e-01,4.865853786468505859e-01,4.963414669036865234e-01,4.939024448394773725e-01,4.841463267803192139e-01,4.914634227752684992e-01,4.951219558715819757e-01,4.914634227752684992e-01,4.817073047161101740e-01,4.878048896789550781e-01,4.878048896789550781e-01,4.768292605876922052e-01,4.841463267803192139e-01,4.951219558715819757e-01,4.792682826519013006e-01,4.963414669036865234e-01,4.914634227752684992e-01,4.865853786468505859e-01,4.841463267803192139e-01,4.926829338073728803e-01,4.829268157482147217e-01,4.792682826519013006e-01,4.975609779357910156e-01,5.000000000000000000e-01,4.853658676147460938e-01,4.841463267803192139e-01,4.951219558715819757e-01,4.987804889678956188e-01,4.853658676147460938e-01,4.743902385234832764e-01,4.987804889678956188e-01,5.048780441284179688e-01,4.951219558715819757e-01,5.219511985778808594e-01,5.463414788246153675e-01,5.451219677925109863e-01,5.560975670814514160e-01,5.829268097877503552e-01,5.731707215309143066e-01,5.707316994667053223e-01,5.670731663703918457e-01,5.487805008888243519e-01,5.329268574714660645e-01,5.158536434173585095e-01,5.000000000000000000e-01,4.987804889678956188e-01,5.024390220642089844e-01,5.060975551605225720e-01,5.012195110321043812e-01,5.243902206420898438e-01,6.000000238418579102e-01,7.548780441284178577e-01,9.012194871902463600e-01,1.000000000000000000e+00,9.829268455505369984e-01,7.817073464393613502e-01,5.560975670814514160e-01,5.109755992889404297e-01,5.085365772247314453e-01,4.804877936840056818e-01,4.792682826519013006e-01,4.817073047161101740e-01,4.792682826519013006e-01,4.670731723308563232e-01,4.682926833629608154e-01,4.780487716197968084e-01,4.756097495555878241e-01,4.756097495555878241e-01,0.000000000000000000e+00,0.000000000000000000e+00,0.000000000000000000e+00,0.000000000000000000e+00,0.000000000000000000e+00,0.000000000000000000e+00,0.000000000000000000e+00,0.000000000000000000e+00,0.000000000000000000e+00,0.000000000000000000e+00,0.000000000000000000e+00,0.000000000000000000e+00,0.000000000000000000e+00,0.000000000000000000e+00,0.000000000000000000e+00,0.000000000000000000e+00,0.000000000000000000e+00,0.000000000000000000e+00,0.000000000000000000e+00,0.000000000000000000e+00,0.000000000000000000e+00,0.000000000000000000e+00,0.000000000000000000e+00,0.000000000000000000e+00,0.000000000000000000e+00,0.000000000000000000e+00,0.000000000000000000e+00,0.000000000000000000e+00,0.000000000000000000e+00,0.000000000000000000e+00,0.000000000000000000e+00,0.000000000000000000e+00,0.000000000000000000e+00,0.000000000000000000e+00,0.000000000000000000e+00,0.000000000000000000e+00,0.000000000000000000e+00,0.000000000000000000e+00,0.000000000000000000e+00,0.000000000000000000e+00,0.000000000000000000e+00,0.000000000000000000e+00,0.000000000000000000e+00,0.000000000000000000e+00,0.000000000000000000e+00,0.000000000000000000e+00,0.000000000000000000e+00,0.000000000000000000e+00,0.000000000000000000e+00,0.000000000000000000e+00,0.000000000000000000e+00,0.000000000000000000e+00,0.000000000000000000e+00,0.000000000000000000e+00,0.000000000000000000e+00,0.000000000000000000e+00,0.000000000000000000e+00,0.000000000000000000e+00,0.000000000000000000e+00,0.000000000000000000e+00,0.000000000000000000e+00,0.000000000000000000e+00,0.000000000000000000e+00,0.000000000000000000e+00,0.000000000000000000e+00,0.000000000000000000e+00,0.000000000000000000e+00,0.000000000000000000e+00,0.000000000000000000e+00,0.000000000000000000e+00,0.000000000000000000e+00,0.000000000000000000e+00,0.000000000000000000e+00,0.000000000000000000e+00,0.000000000000000000e+00,0.000000000000000000e+00,0.000000000000000000e+00,0.000000000000000000e+00,0.000000000000000000e+00,0.000000000000000000e+00,0.000000000000000000e+00,0.000000000000000000e+00,2.000000000000000000e+00
1.000000000000000000e+00,8.656716346740721546e-01,6.604477763175964355e-01,4.589552283287047785e-01,2.425373196601867953e-01,1.268656700849533081e-01,1.641791015863418302e-01,2.425373196601867953e-01,2.985074520111083984e-01,3.507462739944458008e-01,3.731343150138854980e-01,4.402984976768493652e-01,4.477612078189849298e-01,4.440298378467559259e-01,4.253731369972229004e-01,4.104477465152741034e-01,4.141791164875031073e-01,3.992537260055541992e-01,4.067164063453673761e-01,4.067164063453673761e-01,3.955223858356475830e-01,3.880597054958343506e-01,3.992537260055541992e-01,4.141791164875031073e-01,4.253731369972229004e-01,4.253731369972229004e-01,4.514925479888916016e-01,4.962686598300933838e-01,5.373134613037108265e-01,5.447761416435241699e-01,6.119403243064881481e-01,6.641790866851806641e-01,7.014925479888916016e-01,7.276119589805604138e-01,7.500000000000000000e-01,7.611940503120422363e-01,7.462686300277709961e-01,7.126865386962889515e-01,6.977611780166624866e-01,6.902984976768493652e-01,6.417910456657408558e-01,6.156716346740721546e-01,6.007462739944458008e-01,5.970149040222167969e-01,5.708954930305480957e-01,5.559701323509216309e-01,5.485074520111085095e-01,5.559701323509216309e-01,5.410447716712951660e-01,5.223880410194396973e-01,5.298507213592529297e-01,5.373134613037108265e-01,5.373134613037108265e-01,5.223880410194396973e-01,5.298507213592529297e-01,5.410447716712951660e-01,5.447761416435241699e-01,5.335820913314819336e-01,5.298507213592529297e-01,5.447761416435241699e-01,5.261194109916687012e-01,5.149253606796265759e-01,5.223880410194396973e-01,5.373134613037108265e-01,5.223880410194396973e-01,5.186567306518554688e-01,5.149253606796265759e-01,5.261194109916687012e-01,5.223880410194396973e-01,5.074626803398132324e-01,5.037313699722290039e-01,5.261194109916687012e-01,5.074626803398132324e-01,5.037313699722290039e-01,5.037313699722290039e-01,5.186567306518554688e-01,5.111940503120423474e-01,5.074626803398132324e-01,5.149253606796265759e-01,5.223880410194396973e-01,5.223880410194396973e-01,5.335820913314819336e-01,5.671641826629638672e-01,6.455224156379699707e-01,7.462686300277709961e-01,7.761194109916685901e-01,7.164179086685180664e-01,6.194030046463012695e-01,4.477612078189849298e-01,1.753731369972229004e-01,0.000000000000000000e+00,3.731343196704984579e-03,8.955223858356477218e-02,1.716417968273163119e-01,2.537313401699066162e-01,3.171641826629638672e-01,3.432835936546326239e-01,3.880597054958343506e-01,4.328358173370360773e-01,4.813432693481444757e-01,4.850746393203734241e-01,4.738805890083312988e-01,4.589552283287047785e-01,4.776119291782380261e-01,4.776119291782380261e-01,4.701492488384246826e-01,4.738805890083312988e-01,4.888059794902803179e-01,4.925373196601868231e-01,4.925373196601868231e-01,5.000000000000000000e-01,5.186567306518554688e-01,5.149253606796265759e-01,5.223880410194396973e-01,0.000000000000000000e+00,0.000000000000000000e+00,0.000000000000000000e+00,0.000000000000000000e+00,0.000000000000000000e+00,0.000000000000000000e+00,0.000000000000000000e+00,0.000000000000000000e+00,0.000000000000000000e+00,0.000000000000000000e+00,0.000000000000000000e+00,0.000000000000000000e+00,0.000000000000000000e+00,0.000000000000000000e+00,0.000000000000000000e+00,0.000000000000000000e+00,0.000000000000000000e+00,0.000000000000000000e+00,0.000000000000000000e+00,0.000000000000000000e+00,0.000000000000000000e+00,0.000000000000000000e+00,0.000000000000000000e+00,0.000000000000000000e+00,0.000000000000000000e+00,0.000000000000000000e+00,0.000000000000000000e+00,0.000000000000000000e+00,0.000000000000000000e+00,0.000000000000000000e+00,0.000000000000000000e+00,0.000000000000000000e+00,0.000000000000000000e+00,0.000000000000000000e+00,0.000000000000000000e+00,0.000000000000000000e+00,0.000000000000000000e+00,0.000000000000000000e+00,0.000000000000000000e+00,0.000000000000000000e+00,0.000000000000000000e+00,0.000000000000000000e+00,0.000000000000000000e+00,0.000000000000000000e+00,0.000000000000000000e+00,0.000000000000000000e+00,0.000000000000000000e+00,0.000000000000000000e+00,0.000000000000000000e+00,0.000000000000000000e+00,0.000000000000000000e+00,0.000000000000000000e+00,0.000000000000000000e+00,0.000000000000000000e+00,0.000000000000000000e+00,0.000000000000000000e+00,0.000000000000000000e+00,0.000000000000000000e+00,0.000000000000000000e+00,0.000000000000000000e+00,0.000000000000000000e+00,0.000000000000000000e+00,0.000000000000000000e+00,0.000000000000000000e+00,0.000000000000000000e+00,0.000000000000000000e+00,0.000000000000000000e+00,0.000000000000000000e+00,0.000000000000000000e+00,0.000000000000000000e+00,0.000000000000000000e+00,0.000000000000000000e+00,0.000000000000000000e+00,2.000000000000000000e+00
5.567282438278198242e-01,5.303429961204528809e-01,4.406332373619079590e-01,2.902374565601348877e-01,1.715039610862732211e-01,5.540896952152252197e-02,5.277045071125031385e-03,4.221636056900024414e-02,0.000000000000000000e+00,1.319261174648999994e-02,4.485488310456275940e-02,1.266490817070007324e-01,2.137203216552734375e-01,2.427440583705902100e-01,2.532981634140014648e-01,3.139841556549072266e-01,3.614775836467743475e-01,3.931398391723632257e-01,4.564643800258637030e-01,5.699208378791809082e-01,6.042216420173645020e-01,6.068601608276367188e-01,6.121371984481811523e-01,6.358839273452758789e-01,6.411609649658203125e-01,6.306068897247314453e-01,6.569920778274536133e-01,6.754617691040040173e-01,6.781002879142761230e-01,6.833773255348205566e-01,6.886543631553649902e-01,7.097625136375427246e-01,7.255936861038208008e-01,7.414247989654541016e-01,7.625330090522766113e-01,7.783641219139099121e-01,7.862796783447264515e-01,7.387862801551817737e-01,7.176781296730041504e-01,7.467018365859986462e-01,7.493403553962707520e-01,7.440633177757262073e-01,7.546173930168150745e-01,7.598944306373596191e-01,7.546173930168150745e-01,7.308707237243651234e-01,7.229551672935484730e-01,7.124010324478149414e-01,6.992084383964538574e-01,6.596305966377257191e-01,6.517150402069091797e-01,6.358839273452758789e-01,5.936675667762756348e-01,5.646438002586364746e-01,5.646438002586364746e-01,5.751978754997253418e-01,5.514512062072753906e-01,5.277044773101806641e-01,5.329815149307250977e-01,5.356200337409972034e-01,5.197889208793640137e-01,5.435356497764588513e-01,5.197889208793640137e-01,5.356200337409972034e-01,4.802110791206359863e-01,4.406332373619079590e-01,4.617414176464080811e-01,4.591028988361359198e-01,4.749340415000916082e-01,4.591028988361359198e-01,4.854881167411804199e-01,4.881266355514526922e-01,4.722955226898192804e-01,4.775725603103638250e-01,4.722955226898192804e-01,4.749340415000916082e-01,4.643799364566802979e-01,4.591028988361359198e-01,4.907651841640471857e-01,4.643799364566802979e-01,4.591028988361359198e-01,4.696570038795471191e-01,4.854881167411804199e-01,4.696570038795471191e-01,4.643799364566802979e-01,4.828495979309082031e-01,4.802110791206359863e-01,4.670184552669524036e-01,4.696570038795471191e-01,5.197889208793640137e-01,5.356200337409972034e-01,5.514512062072753906e-01,5.725593566894532360e-01,5.620052814483641468e-01,5.065963268280029297e-01,5.092348456382751465e-01,4.854881167411804199e-01,4.591028988361359198e-01,4.591028988361359198e-01,4.485488235950469971e-01,4.564643800258637030e-01,4.485488235950469971e-01,4.353561997413635254e-01,4.485488235950469971e-01,4.379947185516356867e-01,4.379947185516356867e-01,4.274406433105468750e-01,4.195250570774078369e-01,4.379947185516356867e-01,4.432717561721801758e-01,4.828495979309082031e-01,4.934037029743194025e-01,4.986807405948638916e-01,4.881266355514526922e-01,5.013192892074584961e-01,5.171504020690916859e-01,5.250659584999084473e-01,5.303429961204528809e-01,5.118733644485472523e-01,4.960422217845916748e-01,4.063324630260468084e-01,4.353561997413635254e-01,5.118733644485472523e-01,5.382585525512695312e-01,7.308707237243651234e-01,1.000000000000000000e+00,9.419525265693662330e-01,7.625330090522766113e-01,6.332454085350035511e-01,6.306068897247314453e-01,6.332454085350035511e-01,6.358839273452758789e-01,6.490765213966368519e-01,6.569920778274536133e-01,6.411609649658203125e-01,6.649076342582702637e-01,6.728231906890868030e-01,6.490765213966368519e-01,6.833773255348205566e-01,6.965699195861816406e-01,6.939314007759094238e-01,7.176781296730041504e-01,7.335092425346374512e-01,7.493403553962707520e-01,0.000000000000000000e+00,0.000000000000000000e+00,0.000000000000000000e+00,0.000000000000000000e+00,0.000000000000000000e+00,0.000000000000000000e+00,0.000000000000000000e+00,0.000000000000000000e+00,0.000000000000000000e+00,0.000000000000000000e+00,0.000000000000000000e+00,0.000000000000000000e+00,0.000000000000000000e+00,0.000000000000000000e+00,0.000000000000000000e+00,0.000000000000000000e+00,0.000000000000000000e+00,0.000000000000000000e+00,0.000000000000000000e+00,0.000000000000000000e+00,0.000000000000000000e+00,0.000000000000000000e+00,0.000000000000000000e+00,0.000000000000000000e+00,0.000000000000000000e+00,0.000000000000000000e+00,0.000000000000000000e+00,0.000000000000000000e+00,0.000000000000000000e+00,0.000000000000000000e+00,0.000000000000000000e+00,0.000000000000000000e+00,0.000000000000000000e+00,0.000000000000000000e+00,0.000000000000000000e+00,0.000000000000000000e+00,0.000000000000000000e+00,0.000000000000000000e+00,0.000000000000000000e+00,0.000000000000000000e+00,0.000000000000000000e+00,0.000000000000000000e+00,0.000000000000000000e+00,2.000000000000000000e+00
1.000000000000000000e+00,9.680306911468505859e-01,7.826086878776550293e-01,5.127876996994018555e-01,4.181585609912871759e-01,3.810741603374480646e-01,3.478260934352874756e-01,3.209718763828277033e-01,3.120204508304595947e-01,2.953964173793792725e-01,2.915601134300231378e-01,2.813299298286437988e-01,2.710997462272644043e-01,2.685422003269196112e-01,2.608695626258850098e-01,2.480818480253219882e-01,2.352941185235977450e-01,2.276214808225631991e-01,2.161125391721724909e-01,2.020460367202758789e-01,1.828644573688507358e-01,1.598465442657470703e-01,1.445012837648391724e-01,1.253196895122528076e-01,1.035805642604827881e-01,8.312020450830458207e-02,6.010230258107184670e-02,4.475703462958336570e-02,3.324808180332184532e-02,1.662404090166092266e-02,6.393861956894397736e-03,3.836317220702767372e-03,0.000000000000000000e+00,8.951406925916670018e-03,1.534526888281106949e-02,3.452685475349426963e-02,4.859334975481032631e-02,6.649616360664369064e-02,9.462915360927580399e-02,1.227621510624885559e-01,1.432225108146667480e-01,1.675191819667815885e-01,1.930946260690688809e-01,2.135549932718276700e-01,2.352941185235977450e-01,2.583120167255401611e-01,2.736572921276092529e-01,2.941176593303680420e-01,3.132992386817932129e-01,3.248081803321837824e-01,3.414322137832641602e-01,3.657289147377014715e-01,3.670076727867126465e-01,3.810741603374480646e-01,3.938618898391724188e-01,4.002557396888732910e-01,4.066496193408966620e-01,4.130434691905974787e-01,4.156010150909423828e-01,4.156010150909423828e-01,4.219948947429656982e-01,4.258311986923217773e-01,4.232736527919768732e-01,4.219948947429656982e-01,4.258311986923217773e-01,4.335038363933563232e-01,4.360613822937012274e-01,4.347825944423676092e-01,4.347825944423676092e-01,4.309462904930114746e-01,4.347825944423676092e-01,4.360613822937012274e-01,4.347825944423676092e-01,4.335038363933563232e-01,4.322250783443449818e-01,4.322250783443449818e-01,4.386189281940460205e-01,4.437340199947357178e-01,4.347825944423676092e-01,4.309462904930114746e-01,4.386189281940460205e-01,4.411764740943909247e-01,4.437340199947357178e-01,4.424552321434020996e-01,4.411764740943909247e-01,4.386189281940460205e-01,4.398976862430573065e-01,4.386189281940460205e-01,4.386189281940460205e-01,4.462915658950806219e-01,4.475703239440917969e-01,4.501278698444365900e-01,4.475703239440917969e-01,4.578005075454711914e-01,4.578005075454711914e-01,4.590792953968048096e-01,4.514066576957703192e-01,4.590792953968048096e-01,4.654731452465056818e-01,4.654731452465056818e-01,4.680306911468504749e-01,4.667519032955169123e-01,4.833759665489196777e-01,5.831202268600462757e-01,8.976982235908508301e-01,7.800511717796324573e-01,7.519181370735168457e-01,7.404091954231263317e-01,8.043478131294249378e-01,8.708440065383910023e-01,7.864450216293336071e-01,6.457800269126892090e-01,4.616368412971498247e-01,4.987212419509888250e-01,5.166240334510803223e-01,5.076726078987121582e-01,4.948849081993103027e-01,4.846547245979309082e-01,4.731457829475402277e-01,4.680306911468504749e-01,4.603580534458159845e-01,4.552429616451263983e-01,4.450127780437468927e-01,4.475703239440917969e-01,4.386189281940460205e-01,4.411764740943909247e-01,4.283887445926665705e-01,4.322250783443449818e-01,4.245524406433106024e-01,0.000000000000000000e+00,0.000000000000000000e+00,0.000000000000000000e+00,0.000000000000000000e+00,0.000000000000000000e+00,0.000000000000000000e+00,0.000000000000000000e+00,0.000000000000000000e+00,0.000000000000000000e+00,0.000000000000000000e+00,0.000000000000000000e+00,0.000000000000000000e+00,0.000000000000000000e+00,0.000000000000000000e+00,0.000000000000000000e+00,0.000000000000000000e+00,0.000000000000000000e+00,0.000000000000000000e+00,0.000000000000000000e+00,0.000000000000000000e+00,0.000000000000000000e+00,0.000000000000000000e+00,0.000000000000000000e+00,0.000000000000000000e+00,0.000000000000000000e+00,0.000000000000000000e+00,0.000000000000000000e+00,0.000000000000000000e+00,0.000000000000000000e+00,0.000000000000000000e+00,0.000000000000000000e+00,0.000000000000000000e+00,0.000000000000000000e+00,0.000000000000000000e+00,0.000000000000000000e+00,0.000000000000000000e+00,0.000000000000000000e+00,0.000000000000000000e+00,0.000000000000000000e+00,0.000000000000000000e+00,0.000000000000000000e+00,0.000000000000000000e+00,0.000000000000000000e+00,0.000000000000000000e+00,0.000000000000000000e+00,0.000000000000000000e+00,0.000000000000000000e+00,0.000000000000000000e+00,0.000000000000000000e+00,0.000000000000000000e+00,0.000000000000000000e+00,0.000000000000000000e+00,0.000000000000000000e+00,0.000000000000000000e+00,0.000000000000000000e+00,0.000000000000000000e+00,0.000000000000000000e+00,0.000000000000000000e+00,2.000000000000000000e+00
0.000000000000000000e+00,3.768115863204000993e-02,1.014492735266685486e-01,2.159420251846313199e-01,2.362318783998489102e-01,3.492753505706787109e-01,3.898550868034362238e-01,4.855072498321533203e-01,5.391304492950439453e-01,6.014492511749267578e-01,6.115942001342772327e-01,6.521739363670349121e-01,6.869565248489379883e-01,7.072463631629943848e-01,7.115942239761352539e-01,7.478260993957518421e-01,7.869565486907960095e-01,7.840579748153686523e-01,8.144927620887757458e-01,8.536232113838194691e-01,8.666666746139526367e-01,8.710144758224486194e-01,9.072463512420654297e-01,9.434782862663267933e-01,9.246376752853392444e-01,1.000000000000000000e+00,9.463768005371091530e-01,9.797101616859436035e-01,8.753623366355895996e-01,8.869565129280090332e-01,8.101449012756346546e-01,7.826086878776550293e-01,7.289854884147645153e-01,6.971014738082884632e-01,6.666666865348814808e-01,6.376811861991882324e-01,6.391304135322569691e-01,6.478260755538941540e-01,5.826086997985840954e-01,6.362318992614746094e-01,6.869565248489379883e-01,6.463767886161804199e-01,5.144927501678466797e-01,3.623188436031341553e-01,1.927536278963088712e-01,6.231883913278581100e-02,3.333333507180213928e-02,4.782608523964881897e-02,1.115942001342773438e-01,1.652173846960067471e-01,2.333333343267440518e-01,3.376811742782592773e-01,4.115942120552063543e-01,4.826087057590485174e-01,5.318840742111206055e-01,6.014492511749267578e-01,0.000000000000000000e+00,0.000000000000000000e+00,0.000000000000000000e+00,0.000000000000000000e+00,0.000000000000000000e+00,0.000000000000000000e+00,0.000000000000000000e+00,0.000000000000000000e+00,0.000000000000000000e+00,0.000000000000000000e+00,0.000000000000000000e+00,0.000000000000000000e+00,0.000000000000000000e+00,0.000000000000000000e+00,0.000000000000000000e+00,0.000000000000000000e+00,0.000000000000000000e+00,0.000000000000000000e+00,0.000000000000000000e+00,0.000000000000000000e+00,0.000000000000000000e+00,0.000000000000000000e+00,0.000000000000000000e+00,0.000000000000000000e+00,0.000000000000000000e+00,0.000000000000000000e+00,0.000000000000000000e+00,0.000000000000000000e+00,0.000000000000000000e+00,0.000000000000000000e+00,0.000000000000000000e+00,0.000000000000000000e+00,0.000000000000000000e+00,0.000000000000000000e+00,0.000000000000000000e+00,0.000000000000000000e+00,0.000000000000000000e+00,0.000000000000000000e+00,0.000000000000000000e+00,0.000000000000000000e+00,0.000000000000000000e+00,0.000000000000000000e+00,0.000000000000000000e+00,0.000000000000000000e+00,0.000000000000000000e+00,0.000000000000000000e+00,0.000000000000000000e+00,0.000000000000000000e+00,0.000000000000000000e+00,0.000000000000000000e+00,0.000000000000000000e+00,0.000000000000000000e+00,0.000000000000000000e+00,0.000000000000000000e+00,0.000000000000000000e+00,0.000000000000000000e+00,0.000000000000000000e+00,0.000000000000000000e+00,0.000000000000000000e+00,0.000000000000000000e+00,0.000000000000000000e+00,0.000000000000000000e+00,0.000000000000000000e+00,0.000000000000000000e+00,0.000000000000000000e+00,0.000000000000000000e+00,0.000000000000000000e+00,0.000000000000000000e+00,0.000000000000000000e+00,0.000000000000000000e+00,0.000000000000000000e+00,0.000000000000000000e+00,0.000000000000000000e+00,0.000000000000000000e+00,0.000000000000000000e+00,0.000000000000000000e+00,0.000000000000000000e+00,0.000000000000000000e+00,0.000000000000000000e+00,0.000000000000000000e+00,0.000000000000000000e+00,0.000000000000000000e+00,0.000000000000000000e+00,0.000000000000000000e+00,0.000000000000000000e+00,0.000000000000000000e+00,0.000000000000000000e+00,0.000000000000000000e+00,0.000000000000000000e+00,0.000000000000000000e+00,0.000000000000000000e+00,0.000000000000000000e+00,0.000000000000000000e+00,0.000000000000000000e+00,0.000000000000000000e+00,0.000000000000000000e+00,0.000000000000000000e+00,0.000000000000000000e+00,0.000000000000000000e+00,0.000000000000000000e+00,0.000000000000000000e+00,0.000000000000000000e+00,0.000000000000000000e+00,0.000000000000000000e+00,0.000000000000000000e+00,0.000000000000000000e+00,0.000000000000000000e+00,0.000000000000000000e+00,0.000000000000000000e+00,0.000000000000000000e+00,0.000000000000000000e+00,0.000000000000000000e+00,0.000000000000000000e+00,0.000000000000000000e+00,0.000000000000000000e+00,0.000000000000000000e+00,0.000000000000000000e+00,0.000000000000000000e+00,0.000000000000000000e+00,0.000000000000000000e+00,0.000000000000000000e+00,0.000000000000000000e+00,0.000000000000000000e+00,0.000000000000000000e+00,0.000000000000000000e+00,0.000000000000000000e+00,0.000000000000000000e+00,0.000000000000000000e+00,0.000000000000000000e+00,0.000000000000000000e+00,0.000000000000000000e+00,2.000000000000000000e+00
8.720378875732421875e-01,8.554502129554748535e-01,7.772511839866638184e-01,6.587677597999571644e-01,5.236966609954835095e-01,4.668246507644652765e-01,4.454976320266724188e-01,4.834123253822327215e-01,5.473933815956114612e-01,3.246445357799530029e-01,1.824644505977630615e-01,1.327014267444610596e-01,1.137440726161003252e-01,9.478673338890075684e-02,9.241706132888792558e-02,8.056872338056562943e-02,6.635071337223054366e-02,6.161137297749518654e-02,4.739336669445037148e-02,4.739336669445037148e-02,3.080568648874759327e-02,2.132701501250267029e-02,1.895734667778015484e-02,7.109004538506268588e-03,0.000000000000000000e+00,0.000000000000000000e+00,1.184834167361259287e-02,2.606634981930255890e-02,3.791469335556030967e-02,7.582938671112061935e-02,1.090047359466552734e-01,1.445497572422027588e-01,1.706161201000213623e-01,1.943127959966659546e-01,2.156398147344588678e-01,2.203791439533233365e-01,2.251184880733489435e-01,2.298578172922134399e-01,2.298578172922134399e-01,2.251184880733489435e-01,2.180094718933105191e-01,2.180094718933105191e-01,2.251184880733489435e-01,2.251184880733489435e-01,2.227488160133361539e-01,2.345971614122390470e-01,2.345971614122390470e-01,2.345971614122390470e-01,2.345971614122390470e-01,2.417061626911163608e-01,2.417061626911163608e-01,2.464454919099807462e-01,2.535544931888580322e-01,2.488151639699936468e-01,2.511848211288452148e-01,2.464454919099807462e-01,2.488151639699936468e-01,2.440758347511291504e-01,2.535544931888580322e-01,2.488151639699936468e-01,2.511848211288452148e-01,2.559241652488708496e-01,2.535544931888580322e-01,2.511848211288452148e-01,2.464454919099807462e-01,2.440758347511291504e-01,2.488151639699936468e-01,2.511848211288452148e-01,2.535544931888580322e-01,2.488151639699936468e-01,2.511848211288452148e-01,2.559241652488708496e-01,2.559241652488708496e-01,2.464454919099807462e-01,2.559241652488708496e-01,2.488151639699936468e-01,2.535544931888580322e-01,2.582938373088836670e-01,2.559241652488708496e-01,2.535544931888580322e-01,2.535544931888580322e-01,2.488151639699936468e-01,2.535544931888580322e-01,2.535544931888580322e-01,2.559241652488708496e-01,2.559241652488708496e-01,2.582938373088836670e-01,2.654028534889220636e-01,2.701421678066253662e-01,2.701421678066253662e-01,2.748815119266510010e-01,2.796208560466766357e-01,2.796208560466766357e-01,2.938388586044311523e-01,2.914691865444183350e-01,2.962085306644440252e-01,3.009478747844696600e-01,3.270142078399658203e-01,4.075829386711120605e-01,5.687204003334045410e-01,8.127962350845338024e-01,1.000000000000000000e+00,8.199052214622496448e-01,4.360189437866210382e-01,2.511848211288452148e-01,2.867298722267150324e-01,2.630331814289092462e-01,2.582938373088836670e-01,2.511848211288452148e-01,2.488151639699936468e-01,2.440758347511291504e-01,2.440758347511291504e-01,2.464454919099807462e-01,2.440758347511291504e-01,2.345971614122390470e-01,2.393364906311035434e-01,2.417061626911163608e-01,2.417061626911163608e-01,2.345971614122390470e-01,2.417061626911163608e-01,2.535544931888580322e-01,2.559241652488708496e-01,2.559241652488708496e-01,2.748815119266510010e-01,0.000000000000000000e+00,0.000000000000000000e+00,0.000000000000000000e+00,0.000000000000000000e+00,0.000000000000000000e+00,0.000000000000000000e+00,0.000000000000000000e+00,0.000000000000000000e+00,0.000000000000000000e+00,0.000000000000000000e+00,0.000000000000000000e+00,0.000000000000000000e+00,0.000000000000000000e+00,0.000000000000000000e+00,0.000000000000000000e+00,0.000000000000000000e+00,0.000000000000000000e+00,0.000000000000000000e+00,0.000000000000000000e+00,0.000000000000000000e+00,0.000000000000000000e+00,0.000000000000000000e+00,0.000000000000000000e+00,0.000000000000000000e+00,0.000000000000000000e+00,0.000000000000000000e+00,0.000000000000000000e+00,0.000000000000000000e+00,0.000000000000000000e+00,0.000000000000000000e+00,0.000000000000000000e+00,0.000000000000000000e+00,0.000000000000000000e+00,0.000000000000000000e+00,0.000000000000000000e+00,0.000000000000000000e+00,0.000000000000000000e+00,0.000000000000000000e+00,0.000000000000000000e+00,0.000000000000000000e+00,0.000000000000000000e+00,0.000000000000000000e+00,0.000000000000000000e+00,0.000000000000000000e+00,0.000000000000000000e+00,0.000000000000000000e+00,0.000000000000000000e+00,0.000000000000000000e+00,0.000000000000000000e+00,0.000000000000000000e+00,0.000000000000000000e+00,0.000000000000000000e+00,0.000000000000000000e+00,0.000000000000000000e+00,0.000000000000000000e+00,0.000000000000000000e+00,0.000000000000000000e+00,0.000000000000000000e+00,0.000000000000000000e+00,0.000000000000000000e+00,0.000000000000000000e+00,0.000000000000000000e+00,0.000000000000000000e+00,2.000000000000000000e+00
4.316546954214572906e-03,0.000000000000000000e+00,5.467626079916954041e-02,1.525179892778396606e-01,2.258992791175842563e-01,2.906474769115448553e-01,3.812949657440185547e-01,4.374100863933563232e-01,4.676258862018584095e-01,5.453237295150756836e-01,5.913668870925903320e-01,5.971223115921020508e-01,5.899280309677124023e-01,5.942445993423460804e-01,6.115108132362364612e-01,6.258992552757263184e-01,6.345323920249937855e-01,6.402877569198607288e-01,6.546762585639953613e-01,6.676259040832519531e-01,6.805755496025085449e-01,6.863309144973754883e-01,7.079136967658995472e-01,7.309352755546569824e-01,7.366906404495238148e-01,7.410072088241577148e-01,7.366906404495238148e-01,7.237409949302674450e-01,7.021582722663880505e-01,6.834532618522644043e-01,6.575539708137512207e-01,6.359712481498719372e-01,6.100719571113586426e-01,5.841726660728455700e-01,5.640287995338439941e-01,5.467625856399536133e-01,5.338129401206970215e-01,5.208632946014404297e-01,5.208632946014404297e-01,5.251798629760742188e-01,5.194244384765626110e-01,5.151079297065734863e-01,5.179855823516844593e-01,5.208632946014404297e-01,5.179855823516844593e-01,5.151079297065734863e-01,5.194244384765626110e-01,5.223021507263183594e-01,5.151079297065734863e-01,5.064747929573060192e-01,5.079136490821838379e-01,5.107913613319396973e-01,5.035971403121949352e-01,5.007194280624389648e-01,5.007194280624389648e-01,5.050359964370727539e-01,5.064747929573060192e-01,5.035971403121949352e-01,4.992805719375609796e-01,5.079136490821838379e-01,5.079136490821838379e-01,4.978417158126831055e-01,5.021582841873168945e-01,5.064747929573060192e-01,5.050359964370727539e-01,4.992805719375609796e-01,4.992805719375609796e-01,5.107913613319396973e-01,5.136690735816955566e-01,5.251798629760742188e-01,5.352517962455749512e-01,5.438848733901977539e-01,5.611510872840880237e-01,5.769784450531004749e-01,5.726618766784667969e-01,5.611510872840880237e-01,5.697841644287109375e-01,5.568345189094544567e-01,5.381295084953308105e-01,5.223021507263183594e-01,5.107913613319396973e-01,4.892086386680603027e-01,4.892086386680603027e-01,4.978417158126831055e-01,4.992805719375609796e-01,4.964028894901276745e-01,5.050359964370727539e-01,5.956834554672241211e-01,7.553957104682921253e-01,8.949640393257140003e-01,1.000000000000000000e+00,9.654676318168640137e-01,7.640287876129151501e-01,5.611510872840880237e-01,5.194244384765626110e-01,5.035971403121949352e-01,4.575539529323577881e-01,4.446043074131011963e-01,4.532374143600463867e-01,4.517985582351685125e-01,4.460431635379791260e-01,4.402877688407897394e-01,4.402877688407897394e-01,4.431654810905456543e-01,0.000000000000000000e+00,0.000000000000000000e+00,0.000000000000000000e+00,0.000000000000000000e+00,0.000000000000000000e+00,0.000000000000000000e+00,0.000000000000000000e+00,0.000000000000000000e+00,0.000000000000000000e+00,0.000000000000000000e+00,0.000000000000000000e+00,0.000000000000000000e+00,0.000000000000000000e+00,0.000000000000000000e+00,0.000000000000000000e+00,0.000000000000000000e+00,0.000000000000000000e+00,0.000000000000000000e+00,0.000000000000000000e+00,0.000000000000000000e+00,0.000000000000000000e+00,0.000000000000000000e+00,0.000000000000000000e+00,0.000000000000000000e+00,0.000000000000000000e+00,0.000000000000000000e+00,0.000000000000000000e+00,0.000000000000000000e+00,0.000000000000000000e+00,0.000000000000000000e+00,0.000000000000000000e+00,0.000000000000000000e+00,0.000000000000000000e+00,0.000000000000000000e+00,0.000000000000000000e+00,0.000000000000000000e+00,0.000000000000000000e+00,0.000000000000000000e+00,0.000000000000000000e+00,0.000000000000000000e+00,0.000000000000000000e+00,0.000000000000000000e+00,0.000000000000000000e+00,0.000000000000000000e+00,0.000000000000000000e+00,0.000000000000000000e+00,0.000000000000000000e+00,0.000000000000000000e+00,0.000000000000000000e+00,0.000000000000000000e+00,0.000000000000000000e+00,0.000000000000000000e+00,0.000000000000000000e+00,0.000000000000000000e+00,0.000000000000000000e+00,0.000000000000000000e+00,0.000000000000000000e+00,0.000000000000000000e+00,0.000000000000000000e+00,0.000000000000000000e+00,0.000000000000000000e+00,0.000000000000000000e+00,0.000000000000000000e+00,0.000000000000000000e+00,0.000000000000000000e+00,0.000000000000000000e+00,0.000000000000000000e+00,0.000000000000000000e+00,0.000000000000000000e+00,0.000000000000000000e+00,0.000000000000000000e+00,0.000000000000000000e+00,0.000000000000000000e+00,0.000000000000000000e+00,0.000000000000000000e+00,0.000000000000000000e+00,0.000000000000000000e+00,0.000000000000000000e+00,0.000000000000000000e+00,0.000000000000000000e+00,0.000000000000000000e+00,0.000000000000000000e+00,0.000000000000000000e+00,2.000000000000000000e+00
4.807692486792801943e-03,0.000000000000000000e+00,2.283653803169727672e-02,1.081730797886848311e-01,1.935096085071564276e-01,2.331730723381042480e-01,3.052884638309478760e-01,3.954326808452606756e-01,5.096153616905213513e-01,6.033653616905213513e-01,6.586538553237915039e-01,6.766827106475830078e-01,7.043269276618957520e-01,7.367788553237915039e-01,7.788461446762084961e-01,8.149038553237915039e-01,8.653846383094786487e-01,9.086538553237916149e-01,9.615384340286255993e-01,9.867788553237916149e-01,1.000000000000000000e+00,9.879807829856871448e-01,9.723557829856871448e-01,9.375000000000000000e-01,9.038461446762086071e-01,8.509615659713746227e-01,8.125000000000000000e-01,7.584134340286257103e-01,7.187500000000000000e-01,6.802884340286254883e-01,6.490384340286254883e-01,6.201922893524169922e-01,5.973557829856872559e-01,5.781250000000000000e-01,5.637019276618957520e-01,5.600961446762084961e-01,5.564903616905213513e-01,5.528846383094787598e-01,5.552884340286254883e-01,5.372596383094787598e-01,5.360577106475830078e-01,5.276442170143128552e-01,5.252403616905213513e-01,5.216346383094787598e-01,5.204327106475830078e-01,5.084134340286254883e-01,5.120192170143128552e-01,5.012019276618957520e-01,5.060096383094787598e-01,5.060096383094787598e-01,5.036057829856871448e-01,4.987980723381041925e-01,5.024038553237915039e-01,5.012019276618957520e-01,5.000000000000000000e-01,4.951923191547393244e-01,4.987980723381041925e-01,5.000000000000000000e-01,4.987980723381041925e-01,4.891826808452606756e-01,4.951923191547393244e-01,4.963942170143127997e-01,5.048077106475830078e-01,5.072115659713745117e-01,5.000000000000000000e-01,4.963942170143127997e-01,5.024038553237915039e-01,5.012019276618957520e-01,5.132211446762084961e-01,5.084134340286254883e-01,5.120192170143128552e-01,5.108172893524169922e-01,5.108172893524169922e-01,5.084134340286254883e-01,5.132211446762084961e-01,5.072115659713745117e-01,5.132211446762084961e-01,5.108172893524169922e-01,5.108172893524169922e-01,5.048077106475830078e-01,5.048077106475830078e-01,5.024038553237915039e-01,4.987980723381041925e-01,4.963942170143127997e-01,5.108172893524169922e-01,5.144230723381042480e-01,5.156250000000000000e-01,5.144230723381042480e-01,5.192307829856871448e-01,5.132211446762084961e-01,5.252403616905213513e-01,5.276442170143128552e-01,5.156250000000000000e-01,4.759615361690520130e-01,5.228365659713745117e-01,6.021634340286254883e-01,6.887019276618957520e-01,7.319711446762084961e-01,6.875000000000000000e-01,6.021634340286254883e-01,5.144230723381042480e-01,4.807692170143127997e-01,4.771634638309479870e-01,4.675480723381041925e-01,4.675480723381041925e-01,4.579326808452606756e-01,4.687500000000000000e-01,4.639423191547393244e-01,4.651442170143127997e-01,4.675480723381041925e-01,4.699519276618958075e-01,4.687500000000000000e-01,4.735576808452606756e-01,4.735576808452606756e-01,4.855769276618958075e-01,4.951923191547393244e-01,5.072115659713745117e-01,5.108172893524169922e-01,5.132211446762084961e-01,5.108172893524169922e-01,0.000000000000000000e+00,0.000000000000000000e+00,0.000000000000000000e+00,0.000000000000000000e+00,0.000000000000000000e+00,0.000000000000000000e+00,0.000000000000000000e+00,0.000000000000000000e+00,0.000000000000000000e+00,0.000000000000000000e+00,0.000000000000000000e+00,0.000000000000000000e+00,0.000000000000000000e+00,0.000000000000000000e+00,0.000000000000000000e+00,0.000000000000000000e+00,0.000000000000000000e+00,0.000000000000000000e+00,0.000000000000000000e+00,0.000000000000000000e+00,0.000000000000000000e+00,0.000000000000000000e+00,0.000000000000000000e+00,0.000000000000000000e+00,0.000000000000000000e+00,0.000000000000000000e+00,0.000000000000000000e+00,0.000000000000000000e+00,0.000000000000000000e+00,0.000000000000000000e+00,0.000000000000000000e+00,0.000000000000000000e+00,0.000000000000000000e+00,0.000000000000000000e+00,0.000000000000000000e+00,0.000000000000000000e+00,0.000000000000000000e+00,0.000000000000000000e+00,0.000000000000000000e+00,0.000000000000000000e+00,0.000000000000000000e+00,0.000000000000000000e+00,0.000000000000000000e+00,0.000000000000000000e+00,0.000000000000000000e+00,0.000000000000000000e+00,0.000000000000000000e+00,0.000000000000000000e+00,0.000000000000000000e+00,0.000000000000000000e+00,0.000000000000000000e+00,0.000000000000000000e+00,0.000000000000000000e+00,0.000000000000000000e+00,0.000000000000000000e+00,0.000000000000000000e+00,0.000000000000000000e+00,0.000000000000000000e+00,0.000000000000000000e+00,0.000000000000000000e+00,0.000000000000000000e+00,0.000000000000000000e+00,0.000000000000000000e+00,0.000000000000000000e+00,0.000000000000000000e+00,0.000000000000000000e+00,0.000000000000000000e+00,2.000000000000000000e+00
1.000000000000000000e+00,8.997493982315062366e-01,6.416040062904356800e-01,3.145363330841064453e-01,1.015037596225738387e-01,1.077694222331047058e-01,1.115288212895393233e-01,7.142857462167739868e-02,6.390977650880813599e-02,5.889724195003510215e-02,4.385964944958687523e-02,3.383458778262138367e-02,3.634085133671760559e-02,2.756892144680023193e-02,2.255639061331748615e-02,8.771929889917373657e-03,6.265664007514715195e-03,1.378446072340011770e-02,0.000000000000000000e+00,0.000000000000000000e+00,8.771929889917373657e-03,1.754385977983475078e-02,2.756892144680023193e-02,4.385964944958687523e-02,6.140350922942162254e-02,8.646616339683532715e-02,1.127819567918777466e-01,1.303258091211318692e-01,1.629072725772857388e-01,1.992481201887131015e-01,2.167919725179671964e-01,2.380952388048171997e-01,2.631579041481018066e-01,2.744360864162445068e-01,2.844611406326293390e-01,2.756892144680023193e-01,2.769423425197601318e-01,2.756892144680023193e-01,2.543859779834747314e-01,2.368421107530593872e-01,2.305764406919479370e-01,2.092731893062591830e-01,1.954887211322784146e-01,1.842105239629745206e-01,1.804511249065398892e-01,1.904761940240860263e-01,1.804511249065398892e-01,1.929824501276015958e-01,2.255639135837554932e-01,2.418546378612518588e-01,2.531328201293945312e-01,2.631579041481018066e-01,2.644110321998596191e-01,2.481203079223633090e-01,2.030075192451476773e-01,1.804511249065398892e-01,1.854636520147324164e-01,1.867167949676513394e-01,1.766917258501052856e-01,1.804511249065398892e-01,1.817042678594588678e-01,1.854636520147324164e-01,1.829573959112167636e-01,1.666666716337203702e-01,1.704260706901550015e-01,2.994987368583679754e-01,6.027569174766540527e-01,8.822054862976074219e-01,7.894737124443054199e-01,4.987468719482420765e-01,2.255639135837554932e-01,4.636591300368308327e-02,1.077694222331047058e-01,1.553884744644165039e-01,1.240601539611816545e-01,1.240601539611816545e-01,1.228070184588432312e-01,1.190476194024086276e-01,1.102756857872009277e-01,1.002506241202354431e-01,0.000000000000000000e+00,0.000000000000000000e+00,0.000000000000000000e+00,0.000000000000000000e+00,0.000000000000000000e+00,0.000000000000000000e+00,0.000000000000000000e+00,0.000000000000000000e+00,0.000000000000000000e+00,0.000000000000000000e+00,0.000000000000000000e+00,0.000000000000000000e+00,0.000000000000000000e+00,0.000000000000000000e+00,0.000000000000000000e+00,0.000000000000000000e+00,0.000000000000000000e+00,0.000000000000000000e+00,0.000000000000000000e+00,0.000000000000000000e+00,0.000000000000000000e+00,0.000000000000000000e+00,0.000000000000000000e+00,0.000000000000000000e+00,0.000000000000000000e+00,0.000000000000000000e+00,0.000000000000000000e+00,0.000000000000000000e+00,0.000000000000000000e+00,0.000000000000000000e+00,0.000000000000000000e+00,0.000000000000000000e+00,0.000000000000000000e+00,0.000000000000000000e+00,0.000000000000000000e+00,0.000000000000000000e+00,0.000000000000000000e+00,0.000000000000000000e+00,0.000000000000000000e+00,0.000000000000000000e+00,0.000000000000000000e+00,0.000000000000000000e+00,0.000000000000000000e+00,0.000000000000000000e+00,0.000000000000000000e+00,0.000000000000000000e+00,0.000000000000000000e+00,0.000000000000000000e+00,0.000000000000000000e+00,0.000000000000000000e+00,0.000000000000000000e+00,0.000000000000000000e+00,0.000000000000000000e+00,0.000000000000000000e+00,0.000000000000000000e+00,0.000000000000000000e+00,0.000000000000000000e+00,0.000000000000000000e+00,0.000000000000000000e+00,0.000000000000000000e+00,0.000000000000000000e+00,0.000000000000000000e+00,0.000000000000000000e+00,0.000000000000000000e+00,0.000000000000000000e+00,0.000000000000000000e+00,0.000000000000000000e+00,0.000000000000000000e+00,0.000000000000000000e+00,0.000000000000000000e+00,0.000000000000000000e+00,0.000000000000000000e+00,0.000000000000000000e+00,0.000000000000000000e+00,0.000000000000000000e+00,0.000000000000000000e+00,0.000000000000000000e+00,0.000000000000000000e+00,0.000000000000000000e+00,0.000000000000000000e+00,0.000000000000000000e+00,0.000000000000000000e+00,0.000000000000000000e+00,0.000000000000000000e+00,0.000000000000000000e+00,0.000000000000000000e+00,0.000000000000000000e+00,0.000000000000000000e+00,0.000000000000000000e+00,0.000000000000000000e+00,0.000000000000000000e+00,0.000000000000000000e+00,0.000000000000000000e+00,0.000000000000000000e+00,0.000000000000000000e+00,0.000000000000000000e+00,0.000000000000000000e+00,0.000000000000000000e+00,0.000000000000000000e+00,0.000000000000000000e+00,0.000000000000000000e+00,0.000000000000000000e+00,0.000000000000000000e+00,0.000000000000000000e+00,0.000000000000000000e+00,0.000000000000000000e+00,0.000000000000000000e+00,3.000000000000000000e+00
